;Time;Thrust;BEM pressure;N2O pressure;N2OWeigth
0;0.0;759;4;32767;18251
1;0.015555858612060547;760;4;32767;18251
2;0.029659509658813477;760;3;32767;18238
3;0.04399824142456055;760;4;32767;18223
4;0.05820012092590332;760;4;32767;18217
5;0.07238173484802246;760;4;32767;18219
6;0.08651137351989746;760;3;32767;18226
7;0.10954904556274414;759;3;32767;18229
8;0.12380146980285645;760;4;32767;18236
9;0.13793230056762695;760;4;32767;18246
10;0.15218710899353027;760;4;32767;18249
11;0.16639471054077148;760;4;32767;18244
12;0.18060541152954102;760;4;32767;18233
13;0.19587230682373047;759;4;32767;18222
14;0.20997190475463867;761;4;32767;18223
15;0.2242107391357422;761;3;32767;18228
16;0.2385711669921875;761;4;32767;18238
17;0.2526991367340088;760;4;32767;18240
18;0.2668476104736328;761;4;32767;18237
19;0.2809865474700928;759;4;32767;18239
20;0.2951383590698242;761;4;32767;18238
21;0.30924081802368164;759;4;32767;18234
22;0.3233954906463623;760;3;32767;18228
23;0.3375570774078369;759;4;32767;18226
24;0.3517940044403076;760;4;32767;18227
25;0.36594486236572266;760;3;32767;18227
26;0.3800692558288574;760;4;32767;18228
27;0.3943052291870117;760;4;32767;18235
28;0.40848779678344727;761;3;32767;18238
29;0.4226396083831787;760;4;32767;18235
30;0.4367702007293701;760;3;32767;18231
31;0.45096898078918457;760;4;32767;18229
32;0.46512770652770996;760;4;32767;18225
33;0.4792943000793457;761;3;32767;18226
34;0.4936180114746094;760;3;32767;18223
35;0.5077869892120361;760;4;32767;18232
36;0.5220165252685547;760;4;32767;18239
37;0.5361473560333252;761;4;32767;18248
38;0.5503189563751221;760;4;32767;18250
39;0.564612865447998;760;4;32767;18243
40;0.5787656307220459;759;4;32767;18234
41;0.5928082466125488;760;3;32767;18225
42;0.6069056987762451;760;4;32767;18223
43;0.6211323738098145;760;4;32767;18228
44;0.6352663040161133;761;3;32767;18233
45;0.6493768692016602;760;4;32767;18238
46;0.6647205352783203;760;3;32767;18243
47;0.6832451820373535;761;4;32767;18245
48;0.7018959522247314;761;3;32767;18240
49;0.720496654510498;760;3;32767;18229
50;0.7390611171722412;761;4;32767;18225
51;0.7575676441192627;760;3;32767;18228
52;0.77626633644104;761;3;32767;18236
53;0.7948682308197021;761;3;32767;18238
54;0.8134477138519287;760;3;32767;18234
55;0.8320353031158447;760;4;32767;18232
56;0.8505480289459229;761;4;32767;18228
57;0.8693015575408936;760;4;32767;18223
58;0.8878412246704102;761;3;32767;18228
59;0.9174296855926514;760;3;32767;18235
60;0.936164379119873;761;4;32767;18232
61;0.9547719955444336;761;4;32767;18236
62;0.9705295562744141;761;3;32767;18239
63;0.984783411026001;760;4;32767;18236
64;0.9989299774169922;761;4;32767;18235
65;1.0130627155303955;761;4;32767;18230
66;1.0287322998046875;760;3;32767;18231
67;1.0428259372711182;760;3;32767;18238
68;1.0568888187408447;760;4;32767;18243
69;1.071162223815918;759;4;32767;18243
70;1.0852460861206055;760;4;32767;18236
71;1.0993139743804932;761;5;32767;18237
72;1.1135642528533936;761;3;32767;18235
73;1.1277501583099365;760;3;32767;18233
74;1.141969919204712;761;4;32767;18229
75;1.1561036109924316;761;3;32767;18223
76;1.1703402996063232;760;3;32767;18225
77;1.1844737529754639;761;5;32767;18228
78;1.1986005306243896;760;4;32767;18222
79;1.2127861976623535;760;4;32767;18234
80;1.2297658920288086;760;4;32767;18229
81;1.2439453601837158;761;3;32767;18237
82;1.258244276046753;761;4;32767;18239
83;1.2724249362945557;760;3;32767;18238
84;1.286635398864746;761;4;32767;18236
85;1.3090322017669678;761;4;32767;18233
86;1.3231496810913086;760;4;32767;18234
87;1.3372893333435059;761;4;32767;18240
88;1.3516850471496582;760;3;32767;18244
89;1.3658387660980225;761;4;32767;18244
90;1.3800194263458252;761;4;32767;18247
91;1.3942921161651611;760;4;32767;18243
92;1.408463716506958;760;4;32767;18246
93;1.4226155281066895;760;3;32767;18237
94;1.4367482662200928;761;4;32767;18229
95;1.4509408473968506;760;4;32767;18231
96;1.465104579925537;759;3;32767;18231
97;1.479250192642212;760;4;32767;18238
98;1.4933958053588867;760;3;32767;18240
99;1.5074965953826904;760;4;32767;18240
100;1.521733283996582;760;4;32767;18243
101;1.5358619689941406;761;4;32767;18245
102;1.5500247478485107;761;4;32767;18238
103;1.56425142288208;760;3;32767;18231
104;1.578462839126587;760;3;32767;18228
105;1.592524766921997;761;3;32767;18229
106;1.6066663265228271;761;4;32767;18234
107;1.6208629608154297;760;4;32767;18236
108;1.6350255012512207;761;4;32767;18237
109;1.6491332054138184;762;4;32767;18236
110;1.6632671356201172;761;4;32767;18238
111;1.6797447204589844;760;4;32767;18246
112;1.6983323097229004;760;4;32767;18239
113;1.7168128490447998;760;4;32767;18230
114;1.7354023456573486;760;3;32767;18227
115;1.7539911270141602;760;5;32767;18231
116;1.7724366188049316;760;4;32767;18232
117;1.7910029888153076;761;3;32767;18235
118;1.809544563293457;761;4;32767;18246
119;1.8280494213104248;760;4;32767;18239
120;1.846566915512085;760;4;32767;18232
121;1.865098476409912;760;3;32767;18224
122;1.8837852478027344;760;3;32767;18228
123;1.902280569076538;761;3;32767;18237
124;1.920896291732788;761;4;32767;18326
125;1.93943190574646;761;4;32767;18372
126;1.9579014778137207;760;4;32767;18470
127;1.9765870571136475;760;3;32767;18488
128;1.9951286315917969;761;3;32767;18436
129;2.0137431621551514;760;4;32767;18534
130;2.0322508811950684;760;3;32767;18595
131;2.050851345062256;761;4;32767;18456
132;2.069370746612549;760;4;32767;18292
133;2.0878243446350098;760;3;32767;18398
134;2.1172797679901123;761;4;32767;18706
135;2.135881185531616;760;4;32767;19436
136;2.1543586254119873;761;4;32767;21646
137;2.172450304031372;761;4;32767;23149
138;2.1866049766540527;762;3;32392;22867
139;2.200793504714966;761;4;31122;20557
140;2.2149851322174072;761;4;30118;19101
141;2.2291300296783447;761;3;29741;20330
142;2.2433135509490967;762;4;29560;22537
143;2.2574920654296875;760;3;29565;23785
144;2.2717578411102295;761;3;29806;23406
145;2.285881519317627;761;4;30226;22441
146;2.300044298171997;761;3;30547;21663
147;2.3142616748809814;761;4;30631;20925
148;2.328517436981201;761;4;30581;20068
149;2.342600107192993;761;3;30504;18578
150;2.3567378520965576;760;3;30431;16488
151;2.3709473609924316;760;4;30370;14891
152;2.3851699829101562;761;4;30290;14648
153;2.399298667907715;760;3;30196;15704
154;2.413515090942383;760;4;30121;17400
155;2.427633762359619;761;5;30041;18744
156;2.441830635070801;761;4;29987;19200
157;2.4559261798858643;760;3;29910;19096
158;2.4700570106506348;760;4;29846;19061
159;2.4842724800109863;760;3;29789;19574
160;2.49845814704895;760;3;29682;19644
161;2.5213756561279297;760;4;29639;18536
162;2.535508155822754;760;3;29577;17219
163;2.5496208667755127;761;3;29497;17007
164;2.5639595985412598;760;4;29423;17551
165;2.578242301940918;760;4;29312;17671
166;2.594869613647461;760;3;29206;17192
167;2.60901141166687;761;3;29129;17129
168;2.6231610774993896;760;3;29049;17477
169;2.6373348236083984;760;4;28952;17931
170;2.651524305343628;760;4;28865;18405
171;2.6656360626220703;760;4;28798;18885
172;2.6797804832458496;760;3;28718;19052
173;2.693965196609497;760;4;28645;18946
174;2.7081310749053955;760;3;28571;18581
175;2.7222776412963867;761;3;28492;17910
176;2.7363810539245605;761;3;28416;17244
177;2.7505829334259033;761;3;28351;16853
178;2.764800548553467;760;4;28292;16725
179;2.7789530754089355;760;3;28222;16813
180;2.793095827102661;761;3;28185;16906
181;2.807281494140625;760;4;28113;17019
182;2.8214991092681885;761;3;28048;17408
183;2.835601806640625;760;3;27973;17968
184;2.8496713638305664;760;5;27919;18636
185;2.863870143890381;760;4;27865;19108
186;2.880464553833008;761;4;27786;18661
187;2.898939371109009;760;4;27726;17698
188;2.9175198078155518;760;4;27706;16968
189;2.936119318008423;761;4;27628;16829
190;2.954688787460327;761;4;27542;16932
191;2.9731862545013428;760;3;27459;17166
192;2.9917778968811035;760;4;27385;17529
193;3.0102243423461914;761;3;27306;18250
194;3.0289478302001953;761;4;27230;18630
195;3.0474956035614014;760;3;27150;18252
196;3.0660810470581055;760;4;27067;17576
197;3.0846505165100098;761;4;26999;17114
198;3.1030960083007812;761;5;26934;17000
199;3.121694326400757;761;4;26884;17101
200;3.140207052230835;761;4;26816;17217
201;3.1588473320007324;762;4;26760;17477
202;3.177386999130249;761;3;26718;17802
203;3.1961264610290527;760;4;26676;17970
204;3.2147209644317627;761;3;26627;17649
205;3.2332475185394287;761;4;26591;17184
206;3.251845121383667;760;3;26563;16968
207;3.2704193592071533;761;3;26526;17042
208;3.288843870162964;760;3;26505;17295
209;3.3194332122802734;761;3;26441;17401
210;3.337958574295044;761;3;26431;17368
211;3.3565332889556885;761;5;26390;17267
212;3.3751206398010254;760;3;26369;17117
213;3.3911292552948;762;4;26338;16929
214;3.405298948287964;761;4;26330;16843
215;3.41945743560791;761;4;26308;16873
216;3.433950901031494;760;5;26307;17021
217;3.4481706619262695;761;4;26280;17252
218;3.462379217147827;761;3;26250;17401
219;3.4766178131103516;760;5;26242;17479
220;3.490861415863037;760;4;26229;17447
221;3.5050771236419678;761;4;26214;17319
222;3.519235849380493;761;4;26195;17195
223;3.5334184169769287;760;4;26189;17079
224;3.547578811645508;761;4;26174;17074
225;3.5618443489074707;760;3;26172;17147
226;3.576012134552002;761;4;26170;17227
227;3.5900847911834717;760;3;26155;17254
228;3.6043403148651123;761;4;26142;17297
229;3.618520975112915;760;3;26135;17290
230;3.6327006816864014;760;3;26120;17287
231;3.6468281745910645;760;4;26124;17286
232;3.661064863204956;761;4;26109;17315
233;3.6752192974090576;761;3;26108;17306
234;3.6893410682678223;761;3;26108;17247
235;3.7035868167877197;760;3;26103;17042
236;3.726386070251465;761;4;26098;16975
237;3.740590810775757;760;4;26091;16972
238;3.7548253536224365;761;4;26082;17074
239;3.7689578533172607;760;3;26097;17214
240;3.7831714153289795;760;4;26090;17310
241;3.797373056411743;761;3;26077;17328
242;3.811619758605957;761;4;26095;17244
243;3.825765371322632;760;4;26107;17231
244;3.8398211002349854;761;3;26088;17151
245;3.8540115356445312;761;4;26098;17075
246;3.8682262897491455;760;4;26102;17032
247;3.8824236392974854;761;4;26105;16959
248;3.8965885639190674;761;3;26121;16957
249;3.9108481407165527;760;3;26126;17041
250;3.9251186847686768;760;4;26108;17151
251;3.939260244369507;761;4;26128;17241
252;3.955866813659668;760;4;26130;17264
253;3.97001051902771;761;4;26165;17244
254;3.9842400550842285;761;4;26163;17178
255;3.998419761657715;760;4;26168;17094
256;4.012562274932861;760;4;26180;17053
257;4.026670932769775;760;3;26198;16990
258;4.040857553482056;760;5;26204;16983
259;4.055047035217285;761;4;26221;17041
260;4.069150686264038;761;3;26221;17109
261;4.083953380584717;761;3;26250;17155
262;4.102405786514282;761;3;26262;17188
263;4.120991230010986;761;3;26264;17200
264;4.139581680297852;760;3;26264;17174
265;4.158107042312622;760;4;26260;17042
266;4.17668342590332;760;4;26271;16963
267;4.19537615776062;760;4;26251;16904
268;4.213966608047485;761;4;26251;16916
269;4.232499837875366;761;4;26257;16867
270;4.251071453094482;761;3;26254;16925
271;4.26963996887207;761;3;26246;16910
272;4.288391351699829;760;4;26253;16969
273;4.306896924972534;761;3;26230;17000
274;4.325512170791626;760;3;26243;16948
275;4.344015598297119;761;4;26228;16867
276;4.362533092498779;761;4;26214;16821
277;4.381131410598755;761;4;26193;16758
278;4.399686098098755;760;4;26196;16734
279;4.4182984828948975;760;4;26175;16717
280;4.436830997467041;761;4;26142;16800
281;4.455405235290527;761;4;26134;16870
282;4.474033832550049;760;5;26088;16902
283;4.4925642013549805;760;4;26087;16832
284;4.5228354930877686;761;4;26032;16671
285;4.541496753692627;760;3;25990;16651
286;4.559993267059326;761;4;25966;16690
287;4.578595876693726;761;4;25933;16690
288;4.59321928024292;761;3;25932;16697
289;4.607410907745361;761;4;25913;16676
290;4.621596574783325;760;4;25887;16664
291;4.635729074478149;760;4;25860;16709
292;4.64986777305603;760;4;25836;16708
293;4.664089202880859;760;3;25803;16681
294;4.678304672241211;760;2;25799;16611
295;4.692502498626709;760;4;25768;16514
296;4.706632852554321;760;4;25748;16478
297;4.720843553543091;760;4;25717;16531
298;4.735064268112183;761;3;25715;16553
299;4.7492077350616455;761;3;25699;16552
300;4.763386249542236;760;5;25667;16581
301;4.777540922164917;761;3;25651;16553
302;4.791800498962402;760;4;25633;16572
303;4.805964946746826;761;4;25606;16635
304;4.820091485977173;760;4;25601;16624
305;4.8343281745910645;760;3;25578;16594
306;4.848507881164551;760;3;25550;16550
307;4.862678527832031;761;3;25536;16505
308;4.876840829849243;761;4;25512;16507
309;4.891098499298096;761;3;25498;16535
310;4.905248165130615;760;4;25466;16497
311;4.9285056591033936;760;4;25438;16452
312;4.942692041397095;759;3;25399;16486
313;4.956854820251465;761;4;25409;16523
314;4.971087217330933;761;4;25365;16549
315;4.985273838043213;761;4;25370;16529
316;4.999411344528198;760;3;25319;16479
317;5.013670206069946;760;4;25309;16478
318;5.027817726135254;760;3;25299;16428
319;5.0420331954956055;760;4;25284;16470
320;5.056193828582764;761;3;25250;16469
321;5.070394277572632;760;4;25232;16437
322;5.084634780883789;761;3;25221;16437
323;5.098769426345825;760;4;25183;16432
324;5.113006114959717;760;4;25166;16442
325;5.127206325531006;761;4;25142;16454
326;5.141443967819214;761;5;25131;16485
327;5.155599594116211;761;3;25107;16467
328;5.169748067855835;760;4;25081;16419
329;5.184016704559326;760;3;25074;16432
330;5.19823431968689;760;4;25034;16401
331;5.212454795837402;760;4;25021;16349
332;5.226605176925659;760;5;25009;16391
333;5.240868806838989;760;4;24983;16368
334;5.2550694942474365;760;4;24956;16383
335;5.269248008728027;759;3;24946;16436
336;5.283541440963745;761;3;24930;16502
337;5.3000500202178955;760;3;24884;16439
338;5.322178363800049;760;4;24841;16364
339;5.340692758560181;760;4;24835;16343
340;5.359260082244873;760;4;24789;16351
341;5.377732515335083;760;3;24766;16310
342;5.396442174911499;761;4;24731;16341
343;5.41502046585083;761;4;24718;16387
344;5.433486700057983;761;3;24680;16389
345;5.452049016952515;760;5;24655;16413
346;5.470571756362915;760;3;24632;16319
347;5.489150047302246;760;3;24604;16262
348;5.507606506347656;761;4;24574;16228
349;5.526512861251831;761;3;24538;16229
350;5.545088291168213;761;4;24513;16282
351;5.563763618469238;760;4;24474;16275
352;5.582273960113525;760;3;24441;16240
353;5.600943565368652;760;4;24427;16224
354;5.619531869888306;761;3;24385;16207
355;5.638058423995972;761;4;24379;16186
356;5.6566548347473145;760;3;24344;16189
357;5.6752753257751465;761;3;24317;16186
358;5.693912506103516;760;3;24297;16212
359;5.7225728034973145;762;4;24246;16164
360;5.741950988769531;760;4;24206;16121
361;5.760528326034546;760;4;24178;16153
362;5.7791428565979;760;3;24152;16107
363;5.796157360076904;762;3;24134;16137
364;5.810354948043823;761;4;24112;16111
365;5.8246142864227295;761;3;24089;16086
366;5.8387229442596436;761;4;24066;16065
367;5.852867603302002;761;4;24057;16026
368;5.867095947265625;760;4;24035;16024
369;5.881321668624878;760;4;23999;16030
370;5.895503997802734;760;4;23983;16037
371;5.909588575363159;761;4;23977;15996
372;5.923835277557373;761;4;23947;15989
373;5.937983989715576;760;3;23928;16006
374;5.952147483825684;761;3;23898;15944
375;5.966299057006836;761;4;23897;15922
376;5.980501413345337;760;3;23847;15947
377;5.994755029678345;761;4;23827;15976
378;6.008894681930542;760;4;23813;15999
379;6.023054361343384;761;3;23787;15941
380;6.037256717681885;761;3;23765;15915
381;6.051461219787598;761;4;23737;15908
382;6.065609693527222;761;3;23724;15956
383;6.079740285873413;760;3;23703;15974
384;6.093962669372559;761;4;23672;15915
385;6.108189344406128;760;3;23644;15838
386;6.131476402282715;761;3;23612;15887
387;6.145653963088989;761;3;23608;15914
388;6.159786701202393;760;4;23575;15896
389;6.173985958099365;761;4;23563;15900
390;6.1882195472717285;762;3;23529;15834
391;6.202378273010254;760;4;23523;15861
392;6.21656060218811;761;4;23472;15887
393;6.230765342712402;761;3;23462;15881
394;6.244977712631226;760;4;23435;15827
395;6.259107351303101;761;4;23435;15786
396;6.273274898529053;761;3;23405;15795
397;6.287508249282837;761;4;23396;15835
398;6.3017418384552;760;4;23366;15854
399;6.315877437591553;761;4;23335;15840
400;6.330041885375977;761;4;23315;15791
401;6.344212532043457;761;4;23290;15781
402;6.358393907546997;761;3;23265;15796
403;6.37255334854126;761;4;23237;15794
404;6.386767148971558;760;4;23222;15809
405;6.401070594787598;761;3;23213;15774
406;6.415250778198242;761;4;23179;15774
407;6.429392576217651;762;3;23166;15806
408;6.443657875061035;761;3;23143;15827
409;6.457827568054199;761;4;23127;15775
410;6.472059011459351;761;4;23101;15738
411;6.486236572265625;760;4;23073;15745
412;6.500545978546143;760;4;23050;15729
413;6.519315481185913;761;4;23020;15732
414;6.5378639698028564;761;4;22987;15739
415;6.556676387786865;761;4;22954;15737
416;6.575272560119629;761;4;22922;15739
417;6.594077825546265;761;3;22921;15748
418;6.612563371658325;761;4;22886;15736
419;6.631187677383423;761;3;22865;15655
420;6.649763107299805;760;3;22798;15648
421;6.668402433395386;761;4;22790;15678
422;6.687013864517212;762;4;22767;15648
423;6.705588102340698;760;4;22723;15663
424;6.727748394012451;761;4;22705;15666
425;6.746348857879639;762;3;22679;15684
426;6.764925241470337;761;4;22653;15611
427;6.783424377441406;761;4;22628;15565
428;6.8020946979522705;761;4;22580;15587
429;6.820658445358276;761;4;22551;15640
430;6.839186668395996;762;4;22533;15603
431;6.857666015625;761;4;22501;15578
432;6.876232385635376;760;4;22463;15545
433;6.89485764503479;762;4;22433;15579
434;6.924518823623657;762;3;22387;15495
435;6.943341970443726;761;3;22366;15515
436;6.961969614028931;761;4;22344;15553
437;6.98052191734314;762;4;22317;15540
438;6.999125242233276;762;4;22283;15487
439;7.013976812362671;760;4;22243;15517
440;7.02816915512085;761;4;22227;15499
441;7.042328834533691;761;4;22230;15429
442;7.056530475616455;762;4;22209;15425
443;7.0707597732543945;761;5;22198;15476
444;7.084944248199463;761;4;22203;15514
445;7.09906792640686;761;4;22191;15575
446;7.113231420516968;761;3;22199;15606
447;7.127439737319946;761;4;22194;15582
448;7.141675233840942;761;4;22187;15586
449;7.155827760696411;760;4;22190;15581
450;7.170006275177002;761;3;22163;15550
451;7.184261798858643;762;3;22149;15499
452;7.198493242263794;761;4;22149;15445
453;7.212644815444946;762;3;22127;15424
454;7.226802110671997;762;3;22095;15412
455;7.241072654724121;761;4;22081;15402
456;7.255222320556641;761;4;22039;15380
457;7.2693586349487305;761;4;22016;15379
458;7.283628225326538;761;4;21980;15415
459;7.297801733016968;761;3;21942;15418
460;7.312003135681152;761;4;21836;15278
461;7.334058523178101;761;4;21780;15253
462;7.348257780075073;761;5;21691;15246
463;7.362414360046387;761;3;21603;15248
464;7.376564025878906;761;3;21489;15224
465;7.390798330307007;761;4;21397;15244
466;7.404970645904541;762;4;21243;15204
467;7.4191672801971436;761;3;21143;15257
468;7.433335781097412;761;4;21055;15307
469;7.44747519493103;761;4;20947;15316
470;7.461704730987549;761;4;20844;15329
471;7.475848197937012;761;3;20721;15291
472;7.490025758743286;761;4;20646;15313
473;7.504247188568115;761;4;20533;15359
474;7.518436908721924;762;3;20448;15348
475;7.532599210739136;761;4;20383;15298
476;7.546748638153076;761;3;20273;15234
477;7.560949087142944;761;3;20187;15276
478;7.575092792510986;761;3;20098;15280
479;7.589182138442993;761;4;20000;15322
480;7.60340690612793;762;3;19924;15359
481;7.617556095123291;761;5;19835;15308
482;7.631808757781982;762;4;19755;15279
483;7.64596700668335;761;5;19649;15296
484;7.660095691680908;761;3;19580;15373
485;7.674325227737427;761;4;19516;15343
486;7.688512802124023;760;4;19427;15331
487;7.702678203582764;761;4;19354;15266
488;7.718532562255859;762;4;19241;15335
489;7.737053871154785;761;4;19150;15305
490;7.755669116973877;762;3;19005;15259
491;7.774256467819214;761;4;18922;15282
492;7.792873859405518;762;4;18812;15288
493;7.811337232589722;761;3;18712;15346
494;7.829825401306152;761;4;18615;15277
495;7.848415851593018;761;3;18512;15300
496;7.866947174072266;761;4;18413;15308
