;Time;Thrust;BEM pressure;N2O pressure;N2OWeigth
0;0.0;0.759;-0.15828786137147374;49.4407958498711;21.716094794112504
1;0.015555858612060547;0.76;-0.15828786137147374;49.4407958498711;21.716094794112504
2;0.029659509658813477;0.76;-0.16226334513105464;49.4407958498711;21.698696618653454
3;0.04399824142456055;0.76;-0.15828786137147374;49.4407958498711;21.67862180081609
4;0.05820012092590332;0.76;-0.15828786137147374;49.4407958498711;21.67059187368114
5;0.07238173484802246;0.76;-0.15828786137147374;49.4407958498711;21.673268516059455
6;0.08651137351989746;0.76;-0.16226334513105464;49.4407958498711;21.68263676438356
7;0.10954904556274414;0.759;-0.16226334513105464;49.4407958498711;21.686651727951034
8;0.12380146980285645;0.76;-0.15828786137147374;49.4407958498711;21.69601997627514
9;0.13793230056762695;0.76;-0.15828786137147374;49.4407958498711;21.709403188166714
10;0.15218710899353027;0.76;-0.15828786137147374;49.4407958498711;21.71341815173419
11;0.16639471054077148;0.76;-0.15828786137147374;49.4407958498711;21.7067265457884
12;0.18060541152954102;0.76;-0.15828786137147374;49.4407958498711;21.692005012707664
13;0.19587230682373047;0.759;-0.15828786137147374;49.4407958498711;21.67728347962693
14;0.20997190475463867;0.761;-0.15828786137147374;49.4407958498711;21.67862180081609
15;0.2242107391357422;0.761;-0.16226334513105464;49.4407958498711;21.685313406761875
16;0.2385711669921875;0.761;-0.15828786137147374;49.4407958498711;21.698696618653454
17;0.2526991367340088;0.76;-0.15828786137147374;49.4407958498711;21.70137326103177
18;0.2668476104736328;0.761;-0.15828786137147374;49.4407958498711;21.697358297464294
19;0.2809865474700928;0.759;-0.15828786137147374;49.4407958498711;21.70003493984261
20;0.2951383590698242;0.761;-0.15828786137147374;49.4407958498711;21.698696618653454
21;0.30924081802368164;0.759;-0.15828786137147374;49.4407958498711;21.69334333389682
22;0.3233954906463623;0.76;-0.16226334513105464;49.4407958498711;21.685313406761875
23;0.3375570774078369;0.759;-0.15828786137147374;49.4407958498711;21.68263676438356
24;0.3517940044403076;0.76;-0.15828786137147374;49.4407958498711;21.68397508557272
25;0.36594486236572266;0.76;-0.16226334513105464;49.4407958498711;21.68397508557272
26;0.3800692558288574;0.76;-0.15828786137147374;49.4407958498711;21.685313406761875
27;0.3943052291870117;0.76;-0.15828786137147374;49.4407958498711;21.69468165508598
28;0.40848779678344727;0.761;-0.16226334513105464;49.4407958498711;21.698696618653454
29;0.4226396083831787;0.76;-0.15828786137147374;49.4407958498711;21.69468165508598
30;0.4367702007293701;0.76;-0.16226334513105464;49.4407958498711;21.68932837032935
31;0.45096898078918457;0.76;-0.15828786137147374;49.4407958498711;21.686651727951034
32;0.46512770652770996;0.76;-0.15828786137147374;49.4407958498711;21.681298443194404
33;0.4792943000793457;0.761;-0.16226334513105464;49.4407958498711;21.68263676438356
34;0.4936180114746094;0.76;-0.16226334513105464;49.4407958498711;21.67862180081609
35;0.5077869892120361;0.76;-0.15828786137147374;49.4407958498711;21.690666691518505
36;0.5220165252685547;0.76;-0.15828786137147374;49.4407958498711;21.70003493984261
37;0.5361473560333252;0.761;-0.15828786137147374;49.4407958498711;21.71207983054503
38;0.5503189563751221;0.76;-0.15828786137147374;49.4407958498711;21.714756472923344
39;0.564612865447998;0.76;-0.15828786137147374;49.4407958498711;21.70538822459924
40;0.5787656307220459;0.759;-0.15828786137147374;49.4407958498711;21.69334333389682
41;0.5928082466125488;0.76;-0.16226334513105464;49.4407958498711;21.681298443194404
42;0.6069056987762451;0.76;-0.15828786137147374;49.4407958498711;21.67862180081609
43;0.6211323738098145;0.76;-0.15828786137147374;49.4407958498711;21.685313406761875
44;0.6352663040161133;0.761;-0.16226334513105464;49.4407958498711;21.692005012707664
45;0.6493768692016602;0.76;-0.15828786137147374;49.4407958498711;21.698696618653454
46;0.6647205352783203;0.76;-0.16226334513105464;49.4407958498711;21.70538822459924
47;0.6832451820373535;0.761;-0.15828786137147374;49.4407958498711;21.708064866977555
48;0.7018959522247314;0.761;-0.16226334513105464;49.4407958498711;21.70137326103177
49;0.720496654510498;0.76;-0.16226334513105464;49.4407958498711;21.686651727951034
50;0.7390611171722412;0.761;-0.15828786137147374;49.4407958498711;21.681298443194404
51;0.7575676441192627;0.76;-0.16226334513105464;49.4407958498711;21.685313406761875
52;0.77626633644104;0.761;-0.16226334513105464;49.4407958498711;21.69601997627514
53;0.7948682308197021;0.761;-0.16226334513105464;49.4407958498711;21.698696618653454
54;0.8134477138519287;0.76;-0.16226334513105464;49.4407958498711;21.69334333389682
55;0.8320353031158447;0.76;-0.15828786137147374;49.4407958498711;21.690666691518505
56;0.8505480289459229;0.761;-0.15828786137147374;49.4407958498711;21.685313406761875
57;0.8693015575408936;0.76;-0.15828786137147374;49.4407958498711;21.67862180081609
58;0.8878412246704102;0.761;-0.16226334513105464;49.4407958498711;21.685313406761875
59;0.9174296855926514;0.76;-0.16226334513105464;49.4407958498711;21.69468165508598
60;0.936164379119873;0.761;-0.15828786137147374;49.4407958498711;21.690666691518505
61;0.9547719955444336;0.761;-0.15828786137147374;49.4407958498711;21.69601997627514
62;0.9705295562744141;0.761;-0.16226334513105464;49.4407958498711;21.70003493984261
63;0.984783411026001;0.76;-0.15828786137147374;49.4407958498711;21.69601997627514
64;0.9989299774169922;0.761;-0.15828786137147374;49.4407958498711;21.69468165508598
65;1.0130627155303955;0.761;-0.15828786137147374;49.4407958498711;21.68799004914019
66;1.0287322998046875;0.76;-0.16226334513105464;49.4407958498711;21.68932837032935
67;1.0428259372711182;0.76;-0.16226334513105464;49.4407958498711;21.698696618653454
68;1.0568888187408447;0.76;-0.15828786137147374;49.4407958498711;21.70538822459924
69;1.071162223815918;0.759;-0.15828786137147374;49.4407958498711;21.70538822459924
70;1.0852460861206055;0.76;-0.15828786137147374;49.4407958498711;21.69601997627514
71;1.0993139743804932;0.761;-0.15431237761189281;49.4407958498711;21.697358297464294
72;1.1135642528533936;0.761;-0.16226334513105464;49.4407958498711;21.69468165508598
73;1.1277501583099365;0.76;-0.16226334513105464;49.4407958498711;21.692005012707664
74;1.141969919204712;0.761;-0.15828786137147374;49.4407958498711;21.686651727951034
75;1.1561036109924316;0.761;-0.16226334513105464;49.4407958498711;21.67862180081609
76;1.1703402996063232;0.76;-0.16226334513105464;49.4407958498711;21.681298443194404
77;1.1844737529754639;0.761;-0.15431237761189281;49.4407958498711;21.685313406761875
78;1.1986005306243896;0.76;-0.15828786137147374;49.4407958498711;21.67728347962693
79;1.2127861976623535;0.76;-0.15828786137147374;49.4407958498711;21.69334333389682
80;1.2297658920288086;0.76;-0.15828786137147374;49.4407958498711;21.686651727951034
81;1.2439453601837158;0.761;-0.16226334513105464;49.4407958498711;21.697358297464294
82;1.258244276046753;0.761;-0.15828786137147374;49.4407958498711;21.70003493984261
83;1.2724249362945557;0.76;-0.16226334513105464;49.4407958498711;21.698696618653454
84;1.286635398864746;0.761;-0.15828786137147374;49.4407958498711;21.69601997627514
85;1.3090322017669678;0.761;-0.15828786137147374;49.4407958498711;21.692005012707664
86;1.3231496810913086;0.76;-0.15828786137147374;49.4407958498711;21.69334333389682
87;1.3372893333435059;0.761;-0.15828786137147374;49.4407958498711;21.70137326103177
88;1.3516850471496582;0.76;-0.16226334513105464;49.4407958498711;21.7067265457884
89;1.3658387660980225;0.761;-0.15828786137147374;49.4407958498711;21.7067265457884
90;1.3800194263458252;0.761;-0.15828786137147374;49.4407958498711;21.71074150935587
91;1.3942921161651611;0.76;-0.15828786137147374;49.4407958498711;21.70538822459924
92;1.408463716506958;0.76;-0.15828786137147374;49.4407958498711;21.709403188166714
93;1.4226155281066895;0.76;-0.16226334513105464;49.4407958498711;21.697358297464294
94;1.4367482662200928;0.761;-0.15828786137147374;49.4407958498711;21.686651727951034
95;1.4509408473968506;0.76;-0.15828786137147374;49.4407958498711;21.68932837032935
96;1.465104579925537;0.759;-0.16226334513105464;49.4407958498711;21.68932837032935
97;1.479250192642212;0.76;-0.15828786137147374;49.4407958498711;21.698696618653454
98;1.4933958053588867;0.76;-0.16226334513105464;49.4407958498711;21.70137326103177
99;1.5074965953826904;0.76;-0.15828786137147374;49.4407958498711;21.70137326103177
100;1.521733283996582;0.76;-0.15828786137147374;49.4407958498711;21.70538822459924
101;1.5358619689941406;0.761;-0.15828786137147374;49.4407958498711;21.708064866977555
102;1.5500247478485107;0.761;-0.15828786137147374;49.4407958498711;21.698696618653454
103;1.56425142288208;0.76;-0.16226334513105464;49.4407958498711;21.68932837032935
104;1.578462839126587;0.76;-0.16226334513105464;49.4407958498711;21.685313406761875
105;1.592524766921997;0.761;-0.16226334513105464;49.4407958498711;21.686651727951034
106;1.6066663265228271;0.761;-0.15828786137147374;49.4407958498711;21.69334333389682
107;1.6208629608154297;0.76;-0.15828786137147374;49.4407958498711;21.69601997627514
108;1.6350255012512207;0.761;-0.15828786137147374;49.4407958498711;21.697358297464294
109;1.6491332054138184;0.762;-0.15828786137147374;49.4407958498711;21.69601997627514
110;1.6632671356201172;0.761;-0.15828786137147374;49.4407958498711;21.698696618653454
111;1.6797447204589844;0.76;-0.15828786137147374;49.4407958498711;21.709403188166714
112;1.6983323097229004;0.76;-0.15828786137147374;49.4407958498711;21.70003493984261
113;1.7168128490447998;0.76;-0.15828786137147374;49.4407958498711;21.68799004914019
114;1.7354023456573486;0.76;-0.16226334513105464;49.4407958498711;21.68397508557272
115;1.7539911270141602;0.76;-0.15431237761189281;49.4407958498711;21.68932837032935
116;1.7724366188049316;0.76;-0.15828786137147374;49.4407958498711;21.690666691518505
117;1.7910029888153076;0.761;-0.16226334513105464;49.4407958498711;21.69468165508598
118;1.809544563293457;0.761;-0.15828786137147374;49.4407958498711;21.709403188166714
119;1.8280494213104248;0.76;-0.15828786137147374;49.4407958498711;21.70003493984261
120;1.846566915512085;0.76;-0.15828786137147374;49.4407958498711;21.690666691518505
121;1.865098476409912;0.76;-0.16226334513105464;49.4407958498711;21.679960122005244
122;1.8837852478027344;0.76;-0.16226334513105464;49.4407958498711;21.685313406761875
123;1.902280569076538;0.761;-0.16226334513105464;49.4407958498711;21.697358297464294
124;1.920896291732788;0.761;-0.15828786137147374;49.4407958498711;21.81646888329933
125;1.93943190574646;0.761;-0.15828786137147374;49.4407958498711;21.87803165800058
126;1.9579014778137207;0.76;-0.15828786137147374;49.4407958498711;22.009187134538035
127;1.9765870571136475;0.76;-0.16226334513105464;49.4407958498711;22.03327691594287
128;1.9951286315917969;0.761;-0.16226334513105464;49.4407958498711;21.963684214106674
129;2.0137431621551514;0.76;-0.15828786137147374;49.4407958498711;22.094839690644125
130;2.0322508811950684;0.76;-0.16226334513105464;49.4407958498711;22.176477283182745
131;2.050851345062256;0.761;-0.15828786137147374;49.4407958498711;21.990450637889825
132;2.069370746612549;0.76;-0.15828786137147374;49.4407958498711;21.77096596286797
133;2.0878243446350098;0.76;-0.16226334513105464;49.4407958498711;21.91282800891868
134;2.1172797679901123;0.761;-0.15828786137147374;49.4407958498711;22.325030935179246
135;2.135881185531616;0.76;-0.15828786137147374;49.4407958498711;23.302005403264353
136;2.1543586254119873;0.761;-0.15828786137147374;49.4407958498711;26.259695231302825
137;2.172450304031372;0.761;-0.15828786137147374;49.4407958498711;28.27119197860682
138;2.1866049766540527;0.762;-0.16226334513105464;48.8744337457744;27.893785403264353
139;2.200793504714966;0.761;-0.15828786137147374;46.95635408656688;24.80226345631011
140;2.2149851322174072;0.761;-0.15828786137147374;45.44001394653196;22.85366780489653
141;2.2291300296783447;0.761;-0.16226334513105464;44.87063124454674;24.49846454637132
142;2.2433135509490967;0.762;-0.15828786137147374;44.59726713563606;27.452139410842317
143;2.2574920654296875;0.76;-0.16226334513105464;44.60481863035735;29.1223642549111
144;2.2717578411102295;0.761;-0.16226334513105464;44.968800675923504;28.615140524220344
145;2.285881519317627;0.761;-0.15828786137147374;45.60312623251181;27.32366057668318
146;2.300044298171997;0.761;-0.16226334513105464;46.0879321936186;26.282446691518505
147;2.3142616748809814;0.761;-0.15828786137147374;46.21479730493626;25.294765653920138
148;2.328517436981201;0.761;-0.15828786137147374;46.13928235772337;24.147824394812005
149;2.342600107192993;0.761;-0.16226334513105464;46.02298933901551;22.153725822967065
150;2.3567378520965576;0.76;-0.16226334513105464;45.91273751608468;19.356634537627514
151;2.3709473609924316;0.76;-0.15828786137147374;45.82060928048495;17.2193355985427
152;2.3851699829101562;0.761;-0.15828786137147374;45.69978536494432;16.894123549577383
153;2.399298667907715;0.76;-0.16226334513105464;45.55781726418408;18.307390725327892
154;2.413515090942383;0.76;-0.15828786137147374;45.44454484336474;20.577183462139317
155;2.427633762359619;0.761;-0.15431237761189281;45.323720927824105;22.37588714036724
156;2.441830635070801;0.761;-0.15828786137147374;45.24216478483418;22.98616160262314
157;2.4559261798858643;0.76;-0.16226334513105464;45.12587176612632;22.846976198950742
158;2.4700570106506348;0.76;-0.15828786137147374;45.02921263369382;22.800134957330222
159;2.4842724800109863;0.76;-0.16226334513105464;44.943125593871116;23.486693727368113
160;2.49845814704895;0.76;-0.16226334513105464;44.78152360683553;23.58037621060915
161;2.5213756561279297;0.76;-0.15828786137147374;44.71658075223244;22.09751633302244
162;2.535508155822754;0.76;-0.16226334513105464;44.62294221768845;20.334947326901776
163;2.5496208667755127;0.761;-0.16226334513105464;44.502118302147814;20.05122323480035
164;2.5639595985412598;0.76;-0.15828786137147374;44.39035618027273;20.779269961702127
165;2.578242301940918;0.76;-0.15828786137147374;44.22271299746011;20.939868504401048
166;2.594869613647461;0.76;-0.16226334513105464;44.06262130936877;20.29881265479452
167;2.60901141166687;0.761;-0.16226334513105464;43.946328290660915;20.214498419877586
168;2.6231610774993896;0.76;-0.16226334513105464;43.82550437512028;20.680234193704457
169;2.6373348236083984;0.76;-0.15828786137147374;43.67900537752727;21.287832013582044
170;2.651524305343628;0.76;-0.15828786137147374;43.54760936937683;21.922196257242785
171;2.6656360626220703;0.76;-0.15828786137147374;43.446419340111554;22.56459042803847
172;2.6797804832458496;0.76;-0.16226334513105464;43.32559542457092;22.788090066627802
173;2.693965196609497;0.76;-0.15828786137147374;43.21534360164009;22.64622802057709
174;2.7081310749053955;0.76;-0.16226334513105464;43.10358147976501;22.157740786534536
175;2.7222776412963867;0.761;-0.16226334513105464;42.98426786316864;21.259727268609733
176;2.7363810539245605;0.761;-0.16226334513105464;42.86948514340504;20.368405356630717
177;2.7505829334259033;0.761;-0.16226334513105464;42.771315712028276;19.845121771670065
178;2.764800548553467;0.76;-0.15828786137147374;42.68220807431706;19.673816659457884
179;2.7789530754089355;0.76;-0.16226334513105464;42.57648714821901;19.79158892410376
180;2.793095827102661;0.761;-0.16226334513105464;42.52060608728147;19.91605279469542
181;2.807281494140625;0.76;-0.15828786137147374;42.4118645632949;20.06728308907024
182;2.8214991092681885;0.761;-0.16226334513105464;42.31369513191814;20.587890031652577
183;2.835601806640625;0.76;-0.16226334513105464;42.200422711098796;21.33734989758088
184;2.8496713638305664;0.76;-0.15431237761189281;42.11886656810887;22.23134845193821
185;2.863870143890381;0.76;-0.15828786137147374;42.037310425118946;22.863036053220632
186;2.880464553833008;0.761;-0.15828786137147374;41.917996808522574;22.26480648166715
187;2.898939371109009;0.76;-0.15828786137147374;41.8273788718671;20.976003176508307
188;2.9175198078155518;0.76;-0.15828786137147374;41.79717289298194;19.9990287084232
189;2.936119318008423;0.761;-0.15828786137147374;41.67936957532982;19.81300206313028
190;2.954688787460327;0.761;-0.15828786137147374;41.549483866123644;19.95084914561352
191;2.9731862545013428;0.76;-0.16226334513105464;41.42412905375024;20.26401630387642
192;2.9917778968811035;0.76;-0.15828786137147374;41.31236693187516;20.749826895540657
193;3.0102243423461914;0.761;-0.16226334513105464;41.19305331527879;21.714756472923344
194;3.0289478302001953;0.761;-0.15828786137147374;41.078270595515185;22.223318524803265
195;3.0474956035614014;0.76;-0.16226334513105464;40.95744667997456;21.71743311530166
196;3.0660810470581055;0.76;-0.15828786137147374;40.83209186760115;20.812727991431068
197;3.0846505165100098;0.761;-0.15828786137147374;40.729391539391614;20.19442360204022
198;3.1030960083007812;0.761;-0.15431237761189281;40.63122210801485;20.041854986476245
199;3.121694326400757;0.761;-0.15828786137147374;40.55570716080196;20.17702542658117
200;3.140207052230835;0.761;-0.15828786137147374;40.45300683259242;20.33227068452346
201;3.1588473320007324;0.762;-0.15828786137147374;40.36843009171398;20.680234193704457
202;3.177386999130249;0.761;-0.16226334513105464;40.30499753605515;21.115188580180703
203;3.1961264610290527;0.76;-0.15828786137147374;40.24156498039632;21.340026539959194
204;3.2147209644317627;0.761;-0.16226334513105464;40.16756033212768;20.910425438239578
205;3.2332475185394287;0.761;-0.15828786137147374;40.113189570134395;20.288106085281257
206;3.251845121383667;0.76;-0.16226334513105464;40.07090119969518;19.9990287084232
207;3.2704193592071533;0.761;-0.16226334513105464;40.015020138757635;20.098064476420866
208;3.288843870162964;0.76;-0.16226334513105464;39.98330386092822;20.43665973727776
209;3.3194332122802734;0.761;-0.16226334513105464;39.88664472849572;20.578521783328476
210;3.337958574295044;0.761;-0.16226334513105464;39.871541739053136;20.53435718408627
211;3.3565332889556885;0.761;-0.15431237761189281;39.80961948233856;20.399186743981346
212;3.3751206398010254;0.76;-0.16226334513105464;39.777903204509144;20.19843856560769
213;3.3911292552948;0.762;-0.15828786137147374;39.73108393723715;19.94683418204605
214;3.405298948287964;0.761;-0.15828786137147374;39.71900154568309;19.83173855977849
215;3.41945743560791;0.761;-0.15828786137147374;39.68577496890941;19.87188819545322
216;3.433950901031494;0.76;-0.15431237761189281;39.68426466996516;20.069959731448556
217;3.4481706619262695;0.761;-0.15828786137147374;39.6434865984702;20.37911192614398
218;3.462379217147827;0.761;-0.16226334513105464;39.59817763014246;20.578521783328476
219;3.4766178131103516;0.76;-0.15431237761189281;39.58609523858839;20.682910836082772
220;3.490861415863037;0.76;-0.15828786137147374;39.56646135231304;20.640084558029727
221;3.5050771236419678;0.761;-0.15828786137147374;39.543806868149176;20.468779445817546
222;3.519235849380493;0.761;-0.15828786137147374;39.51511118820827;20.30282761836199
223;3.5334184169769287;0.76;-0.15828786137147374;39.50604939454273;20.1475823604197
224;3.547578811645508;0.761;-0.15828786137147374;39.483394910378856;20.14089075447391
225;3.5618443489074707;0.76;-0.16226334513105464;39.48037431249034;20.238588201282425
226;3.576012134552002;0.761;-0.15828786137147374;39.477353714601826;20.345653896415037
227;3.5900847911834717;0.76;-0.16226334513105464;39.45469923043796;20.381788568522296
228;3.6043403148651123;0.761;-0.15828786137147374;39.43506534416261;20.439336379656076
229;3.618520975112915;0.76;-0.16226334513105464;39.4244932515528;20.42996813133197
230;3.6327006816864014;0.76;-0.16226334513105464;39.40183876738893;20.425953167764497
231;3.6468281745910645;0.76;-0.15828786137147374;39.40787996316597;20.42461484657534
232;3.661064863204956;0.761;-0.15828786137147374;39.385225479002095;20.463426161060912
233;3.6752192974090576;0.761;-0.16226334513105464;39.38371518005784;20.451381270358496
234;3.6893410682678223;0.761;-0.16226334513105464;39.38371518005784;20.37242032019819
