;Time;Thrust;BEM pressure;N2O pressure
0;0.0;21.634;-0.045521281119;-0.0469897099
1;0.007936716079711914;21.631;-0.045521281119;-0.0469897099
2;0.015137672424316406;21.629;-0.0469897099;-0.0469897099
3;0.022342681884765625;21.63;-0.0469897099;-0.045521281119
4;0.02956104278564453;21.632;-0.0469897099;-0.0469897099
5;0.03675556182861328;21.633;-0.0469897099;-0.0469897099
6;0.04394960403442383;21.635;-0.045521281119;-0.0469897099
7;0.05115151405334473;21.632;-0.045521281119;-0.048458138681000004
8;0.05838465690612793;21.633;-0.0469897099;-0.048458138681000004
9;0.0655825138092041;21.633;-0.0469897099;-0.0469897099
10;0.07277441024780273;21.633;-0.045521281119;-0.0469897099
11;0.07997751235961914;21.632;-0.0469897099;-0.0469897099
12;0.08716869354248047;21.633;-0.0469897099;-0.0469897099
13;0.09438014030456543;21.632;-0.0469897099;-0.048458138681000004
14;0.10158705711364746;21.635;-0.0469897099;-0.0469897099
15;0.1087799072265625;21.636;-0.045521281119;-0.045521281119
16;0.11598467826843262;21.635;-0.045521281119;-0.0469897099
17;0.12322449684143066;21.631;-0.0469897099;-0.045521281119
18;0.1304163932800293;21.633;-0.0469897099;-0.0469897099
19;0.1376051902770996;21.633;-0.045521281119;-0.0469897099
20;0.1448047161102295;21.633;-0.0469897099;-0.0469897099
21;0.1519947052001953;21.634;-0.0469897099;-0.0469897099
22;0.15918493270874023;21.63;-0.045521281119;-0.0469897099
23;0.16637778282165527;21.635;-0.048458138681000004;-0.045521281119
24;0.17358613014221191;21.632;-0.0469897099;-0.0469897099
25;0.18082594871520996;21.633;-0.0469897099;-0.0469897099
26;0.1880178451538086;21.631;-0.0469897099;-0.045521281119
27;0.19521093368530273;21.631;-0.0469897099;-0.044052852338
28;0.20240306854248047;21.636;-0.0469897099;-0.0469897099
29;0.20960116386413574;21.633;-0.0469897099;-0.0469897099
30;0.2167987823486328;21.632;-0.045521281119;-0.0469897099
31;0.22399425506591797;21.632;-0.045521281119;-0.0469897099
32;0.2311999797821045;21.633;-0.0469897099;-0.0469897099
33;0.23842906951904297;21.636;-0.0469897099;-0.048458138681000004
34;0.24562406539916992;21.632;-0.0469897099;-0.0469897099
35;0.25278162956237793;21.631;-0.0469897099;-0.045521281119
36;0.259920597076416;21.633;-0.045521281119;-0.045521281119
37;0.26706624031066895;21.635;-0.044052852338;-0.045521281119
38;0.2741985321044922;21.632;-0.045521281119;-0.0469897099
39;0.28133201599121094;21.632;-0.045521281119;-0.0469897099
40;0.2884674072265625;21.631;-0.0469897099;-0.0469897099
41;0.29560017585754395;21.633;-0.045521281119;-0.0469897099
42;0.3027305603027344;21.634;-0.0469897099;-0.0469897099
43;0.30986452102661133;21.633;-0.045521281119;-0.0469897099
44;0.31699681282043457;21.63;-0.045521281119;-0.045521281119
45;0.3241302967071533;21.633;-0.044052852338;-0.0469897099
46;0.3312664031982422;21.634;-0.045521281119;-0.0469897099
47;0.338454008102417;21.63;-0.0469897099;-0.0469897099
48;0.34558749198913574;21.634;-0.0469897099;-0.045521281119
49;0.35271739959716797;21.632;-0.0469897099;-0.0469897099
50;0.35986328125;21.633;-0.0469897099;-0.0469897099
51;0.36699533462524414;21.633;-0.0469897099;-0.0469897099
52;0.3741271495819092;21.632;-0.0469897099;-0.0469897099
53;0.3812682628631592;21.633;-0.0469897099;-0.0469897099
54;0.3884422779083252;21.634;-0.045521281119;-0.048458138681000004
55;0.39557743072509766;21.631;-0.0469897099;-0.045521281119
56;0.4027068614959717;21.631;-0.0469897099;-0.045521281119
57;0.4098389148712158;21.632;-0.0469897099;-0.0469897099
58;0.4169728755950928;21.631;-0.045521281119;-0.0469897099
59;0.42410945892333984;21.63;-0.0469897099;-0.0469897099
60;0.4312422275543213;21.63;-0.0469897099;-0.0469897099
61;0.43841075897216797;21.632;-0.045521281119;-0.048458138681000004
62;0.44556427001953125;21.633;-0.0469897099;-0.048458138681000004
63;0.45270323753356934;21.63;-0.0469897099;-0.0469897099
64;0.4598393440246582;21.631;-0.0469897099;-0.048458138681000004
65;0.46697378158569336;21.633;-0.0469897099;-0.0469897099
66;0.4741089344024658;21.63;-0.0469897099;-0.0469897099
67;0.48124146461486816;21.63;-0.0469897099;-0.0469897099
68;0.48840904235839844;21.632;-0.0469897099;-0.0469897099
69;0.4955432415008545;21.632;-0.0469897099;-0.0469897099
70;0.5026881694793701;21.633;-0.0469897099;-0.0469897099
71;0.5098204612731934;21.633;-0.0469897099;-0.0469897099
72;0.5169546604156494;21.633;-0.045521281119;-0.0469897099
73;0.5240869522094727;21.632;-0.044052852338;-0.0469897099
74;0.5312182903289795;21.63;-0.045521281119;-0.045521281119
75;0.5383970737457275;21.632;-0.0469897099;-0.0469897099
76;0.5455310344696045;21.632;-0.045521281119;-0.0469897099
77;0.5526635646820068;21.634;-0.0469897099;-0.0469897099
78;0.5598077774047852;21.632;-0.045521281119;-0.0469897099
79;0.5669407844543457;21.63;-0.045521281119;-0.048458138681000004
80;0.5740742683410645;21.633;-0.045521281119;-0.0469897099
81;0.5812060832977295;21.635;-0.0469897099;-0.0469897099
82;0.5883750915527344;21.634;-0.048458138681000004;-0.0469897099
83;0.5955450534820557;21.631;-0.045521281119;-0.0469897099
84;0.6026811599731445;21.634;-0.045521281119;-0.045521281119
85;0.609816312789917;21.63;-0.045521281119;-0.0469897099
86;0.6169633865356445;21.633;-0.0469897099;-0.0469897099
87;0.6240942478179932;21.631;-0.045521281119;-0.0469897099
88;0.6312317848205566;21.632;-0.0469897099;-0.045521281119
89;0.638404130935669;21.631;-0.045521281119;-0.048458138681000004
90;0.6455402374267578;21.633;-0.044052852338;-0.0469897099
91;0.6527092456817627;21.632;-0.045521281119;-0.0469897099
92;0.6598522663116455;21.633;-0.045521281119;-0.0469897099
93;0.6670045852661133;21.635;-0.045521281119;-0.0469897099
94;0.6743876934051514;21.63;-0.0469897099;-0.0469897099
95;0.6816287040710449;21.633;-0.0469897099;-0.0469897099
96;0.688765287399292;21.634;-0.044052852338;-0.045521281119
97;0.6959018707275391;21.631;-0.0469897099;-0.045521281119
98;0.7030415534973145;21.631;-0.0469897099;-0.0469897099
99;0.710230827331543;21.631;-0.045521281119;-0.0469897099
100;0.7173659801483154;21.63;-0.0469897099;-0.0469897099
101;0.7245514392852783;21.632;-0.045521281119;-0.0469897099
102;0.7323882579803467;21.631;-0.0469897099;-0.0469897099
103;0.7413744926452637;21.63;-0.0469897099;-0.048458138681000004
104;0.749279260635376;21.633;-0.0469897099;-0.0469897099
105;0.7571702003479004;21.629;-0.0469897099;-0.0469897099
106;0.7650701999664307;21.636;-0.0469897099;-0.0469897099
107;0.7730486392974854;21.631;-0.045521281119;-0.0469897099
108;0.7809431552886963;21.634;-0.045521281119;-0.0469897099
109;0.78883957862854;21.631;-0.0469897099;-0.045521281119
110;0.7967286109924316;21.631;-0.0469897099;-0.0469897099
111;0.8046200275421143;21.634;-0.0469897099;-0.045521281119
112;0.8125836849212646;21.634;-0.045521281119;-0.045521281119
113;0.820488452911377;21.636;-0.045521281119;-0.045521281119
114;0.8284807205200195;21.631;-0.0469897099;-0.0469897099
115;0.8363745212554932;21.633;-0.0469897099;-0.045521281119
116;0.8442695140838623;21.634;-0.0469897099;-0.045521281119
117;0.852168083190918;21.633;-0.045521281119;-0.0469897099
118;0.860062837600708;21.632;-0.045521281119;-0.0469897099
119;0.8679590225219727;21.635;-0.0469897099;-0.045521281119
120;0.8758528232574463;21.632;-0.0469897099;-0.0469897099
121;0.8838140964508057;21.63;-0.0469897099;-0.045521281119
122;0.8918001651763916;21.632;-0.045521281119;-0.045521281119
123;0.8996961116790771;21.632;-0.045521281119;-0.0469897099
124;0.9075822830200195;21.632;-0.045521281119;-0.0469897099
125;0.915475606918335;21.631;-0.045521281119;-0.045521281119
126;0.9234118461608887;21.631;-0.0469897099;-0.0469897099
127;0.9313070774078369;21.632;-0.045521281119;-0.0469897099
128;0.9391961097717285;21.634;-0.045521281119;-0.0469897099
129;0.9470915794372559;21.635;-0.045521281119;-0.0469897099
130;0.9549896717071533;21.632;-0.0469897099;-0.0469897099
131;0.9628887176513672;21.633;-0.0469897099;-0.045521281119
132;0.9707880020141602;21.634;-0.0469897099;-0.0469897099
133;0.9786860942840576;21.633;-0.0469897099;-0.0469897099
134;0.9865820407867432;21.634;-0.0469897099;-0.045521281119
135;0.9944760799407959;21.632;-0.0469897099;-0.0469897099
136;1.002375602722168;21.632;-0.045521281119;-0.0469897099
137;1.010558843612671;21.632;-0.0469897099;-0.045521281119
138;1.0185179710388184;21.633;-0.0469897099;-0.045521281119
139;1.0264582633972168;21.634;-0.0469897099;-0.045521281119
140;1.0343561172485352;21.634;-0.0469897099;-0.045521281119
141;1.0422523021697998;21.633;-0.0469897099;-0.048458138681000004
142;1.05015230178833;21.63;-0.0469897099;-0.0469897099
143;1.0580472946166992;21.632;-0.0469897099;-0.0469897099
144;1.065941333770752;21.633;-0.045521281119;-0.0469897099
145;1.0738403797149658;21.633;-0.0469897099;-0.0469897099
146;1.0817370414733887;21.632;-0.0469897099;-0.048458138681000004
147;1.0896306037902832;21.63;-0.0469897099;-0.0469897099
148;1.0976979732513428;21.632;-0.045521281119;-0.0469897099
149;1.1056640148162842;21.635;-0.0469897099;-0.045521281119
150;1.113560676574707;21.634;-0.0469897099;-0.0469897099
151;1.1214635372161865;21.634;-0.045521281119;-0.045521281119
152;1.129406452178955;21.633;-0.045521281119;-0.045521281119
153;1.1372995376586914;21.635;-0.0469897099;-0.0469897099
154;1.145197868347168;21.634;-0.045521281119;-0.048458138681000004
155;1.1531574726104736;21.633;-0.0469897099;-0.0469897099
156;1.161118745803833;21.635;-0.045521281119;-0.0469897099
157;1.169020652770996;21.634;-0.0469897099;-0.0469897099
158;1.1769154071807861;21.634;-0.045521281119;-0.0469897099
159;1.1848185062408447;21.631;-0.045521281119;-0.045521281119
160;1.192720890045166;21.631;-0.0469897099;-0.045521281119
161;1.200618028640747;21.63;-0.0469897099;-0.045521281119
162;1.2085850238800049;21.634;-0.0469897099;-0.045521281119
163;1.2164859771728516;21.631;-0.045521281119;-0.045521281119
164;1.224426031112671;21.633;-0.0469897099;-0.0469897099
165;1.232353925704956;21.635;-0.0469897099;-0.045521281119
166;1.2402570247650146;21.633;-0.0469897099;-0.0469897099
167;1.2481637001037598;21.632;-0.045521281119;-0.0469897099
168;1.2560646533966064;21.635;-0.045521281119;-0.045521281119
169;1.2639787197113037;21.632;-0.0469897099;-0.0469897099
170;1.27189302444458;21.635;-0.045521281119;-0.0469897099
171;1.2797977924346924;21.635;-0.045521281119;-0.0469897099
172;1.2877044677734375;21.635;-0.045521281119;-0.045521281119
173;1.2957019805908203;21.635;-0.0469897099;-0.045521281119
174;1.3036158084869385;21.632;-0.0469897099;-0.0469897099
175;1.3115241527557373;21.632;-0.0469897099;-0.045521281119
176;1.3194363117218018;21.633;-0.0469897099;-0.0469897099
177;1.3273448944091797;21.632;-0.044052852338;-0.045521281119
178;1.3352789878845215;21.634;-0.045521281119;-0.044052852338
179;1.3431897163391113;21.632;-0.0469897099;-0.045521281119
180;1.3511645793914795;21.633;-0.045521281119;-0.0469897099
181;1.3590710163116455;21.634;-0.0469897099;-0.0469897099
182;1.3669800758361816;21.635;-0.0469897099;-0.0469897099
183;1.374887228012085;21.634;-0.045521281119;-0.045521281119
184;1.3827953338623047;21.633;-0.0469897099;-0.0469897099
185;1.3906993865966797;21.633;-0.0469897099;-0.045521281119
186;1.398608684539795;21.634;-0.045521281119;-0.0469897099
187;1.4065144062042236;21.632;-0.045521281119;-0.045521281119
188;1.414419174194336;21.632;-0.0469897099;-0.048458138681000004
189;1.422332525253296;21.632;-0.0469897099;-0.0469897099
190;1.4302713871002197;21.633;-0.0469897099;-0.045521281119
191;1.4381749629974365;21.635;-0.0469897099;-0.0469897099
192;1.4460797309875488;21.635;-0.048458138681000004;-0.045521281119
193;1.4540112018585205;21.63;-0.0469897099;-0.0469897099
194;1.461923599243164;21.634;-0.045521281119;-0.0469897099
195;1.469848871231079;21.634;-0.045521281119;-0.0469897099
196;1.477757453918457;21.631;-0.0469897099;-0.0469897099
197;1.4857351779937744;21.632;-0.0469897099;-0.0469897099
198;1.4936935901641846;21.631;-0.045521281119;-0.048458138681000004
199;1.5016021728515625;21.632;-0.045521281119;-0.0469897099
200;1.509507656097412;21.634;-0.0469897099;-0.045521281119
201;1.5174155235290527;21.633;-0.0469897099;-0.0469897099
202;1.525362253189087;21.633;-0.0469897099;-0.0469897099
203;1.5332739353179932;21.631;-0.0469897099;-0.0469897099
204;1.5411856174468994;21.635;-0.0469897099;-0.0469897099
205;1.5491125583648682;21.631;-0.0469897099;-0.0469897099
206;1.5570237636566162;21.633;-0.045521281119;-0.0469897099
207;1.5649335384368896;21.633;-0.0469897099;-0.0469897099
208;1.5728418827056885;21.635;-0.0469897099;-0.0469897099
209;1.5807709693908691;21.631;-0.0469897099;-0.048458138681000004
210;1.5886952877044678;21.632;-0.0469897099;-0.0469897099
211;1.59663987159729;21.631;-0.0469897099;-0.048458138681000004
212;1.6045536994934082;21.634;-0.0469897099;-0.0469897099
213;1.6135544776916504;21.63;-0.0469897099;-0.0469897099
214;1.6214733123779297;21.631;-0.0469897099;-0.0469897099
215;1.6294267177581787;21.63;-0.0469897099;-0.0469897099
216;1.637331247329712;21.632;-0.045521281119;-0.0469897099
217;1.6452336311340332;21.631;-0.045521281119;-0.048458138681000004
218;1.6531774997711182;21.633;-0.0469897099;-0.0469897099
219;1.6611931324005127;21.633;-0.0469897099;-0.0469897099
220;1.669098138809204;21.634;-0.0469897099;-0.0469897099
221;1.676999568939209;21.632;-0.048458138681000004;-0.0469897099
222;1.684908151626587;21.632;-0.045521281119;-0.045521281119
223;1.692819356918335;21.632;-0.0469897099;-0.0469897099
224;1.7007198333740234;21.636;-0.0469897099;-0.0469897099
225;1.7086281776428223;21.634;-0.045521281119;-0.0469897099
226;1.7165324687957764;21.634;-0.0469897099;-0.0469897099
227;1.724472999572754;21.633;-0.0469897099;-0.0469897099
228;1.7323825359344482;21.635;-0.0469897099;-0.045521281119
229;1.7402863502502441;21.632;-0.0469897099;-0.045521281119
230;1.748187780380249;21.635;-0.0469897099;-0.045521281119
231;1.756089448928833;21.634;-0.045521281119;-0.0469897099
232;1.76399564743042;21.634;-0.0469897099;-0.0469897099
233;1.7719058990478516;21.636;-0.0469897099;-0.0469897099
234;1.7798082828521729;21.633;-0.0469897099;-0.045521281119
235;1.7877097129821777;21.634;-0.045521281119;-0.045521281119
236;1.7956900596618652;21.633;-0.0469897099;-0.0469897099
237;1.8035917282104492;21.633;-0.0469897099;-0.045521281119
238;1.811502456665039;21.634;-0.0469897099;-0.0469897099
239;1.8194119930267334;21.633;-0.0469897099;-0.0469897099
240;1.8273544311523438;21.633;-0.045521281119;-0.0469897099
241;1.8352696895599365;21.633;-0.045521281119;-0.0469897099
242;1.8431715965270996;21.631;-0.045521281119;-0.045521281119
243;1.851144790649414;21.633;-0.0469897099;-0.045521281119
244;1.8590490818023682;21.63;-0.045521281119;-0.045521281119
245;1.8669517040252686;21.631;-0.0469897099;-0.045521281119
246;1.8748648166656494;21.634;-0.0469897099;-0.0469897099
247;1.8827695846557617;21.632;-0.0469897099;-0.048458138681000004
248;1.8906981945037842;21.633;-0.045521281119;-0.0469897099
249;1.8986127376556396;21.631;-0.0469897099;-0.0469897099
250;1.9065155982971191;21.63;-0.0469897099;-0.045521281119
251;1.9144203662872314;21.632;-0.0469897099;-0.0469897099
252;1.9223253726959229;21.635;-0.045521281119;-0.0469897099
253;1.9302699565887451;21.635;-0.0469897099;-0.0469897099
254;1.9381752014160156;21.635;-0.0469897099;-0.0469897099
255;1.9460759162902832;21.635;-0.045521281119;-0.0469897099
256;1.9539835453033447;21.632;-0.0469897099;-0.0469897099
257;1.9618890285491943;21.633;-0.045521281119;-0.0469897099
258;1.9698078632354736;21.634;-0.0469897099;-0.0469897099
259;1.9777140617370605;21.634;-0.0469897099;-0.045521281119
260;1.985701084136963;21.631;-0.0469897099;-0.0469897099
261;1.9936113357543945;21.635;-0.0469897099;-0.045521281119
262;2.001514196395874;21.631;-0.0469897099;-0.0469897099
263;2.0094196796417236;21.634;-0.0469897099;-0.0469897099
264;2.0173287391662598;21.634;-0.0469897099;-0.0469897099
265;2.025275230407715;21.635;-0.0469897099;-0.045521281119
266;2.0331974029541016;21.631;-0.0469897099;-0.0469897099
267;2.041170358657837;21.632;-0.045521281119;-0.0469897099
268;2.0490734577178955;21.63;-0.0469897099;-0.0469897099
269;2.0569863319396973;21.634;-0.045521281119;-0.0469897099
270;2.0648932456970215;21.63;-0.045521281119;-0.0469897099
271;2.0728087425231934;21.633;-0.0469897099;-0.0469897099
272;2.0807158946990967;21.633;-0.045521281119;-0.048458138681000004
273;2.088622570037842;21.63;-0.045521281119;-0.045521281119
274;2.0965726375579834;21.633;-0.045521281119;-0.0469897099
275;2.1044862270355225;21.635;-0.0469897099;-0.045521281119
276;2.112393379211426;21.636;-0.0469897099;-0.0469897099
277;2.1203055381774902;21.635;-0.0469897099;-0.0469897099
278;2.1282544136047363;21.634;-0.045521281119;-0.045521281119
279;2.136160373687744;21.632;-0.0469897099;-0.045521281119
280;2.144063949584961;21.63;-0.0469897099;-0.0469897099
281;2.1519699096679688;21.632;-0.045521281119;-0.045521281119
282;2.1599459648132324;21.632;-0.0469897099;-0.0469897099
283;2.1679086685180664;21.633;-0.0469897099;-0.0469897099
284;2.176051378250122;21.634;-0.048458138681000004;-0.045521281119
285;2.1843035221099854;21.634;-0.045521281119;-0.0469897099
286;2.1922264099121094;21.633;-0.0469897099;-0.0469897099
287;2.2001442909240723;21.634;-0.0469897099;-0.048458138681000004
288;2.208061456680298;21.635;-0.0469897099;-0.0469897099
289;2.2159671783447266;21.634;-0.0469897099;-0.0469897099
290;2.2238850593566895;21.634;-0.0469897099;-0.0469897099
291;2.231841564178467;21.632;-0.045521281119;-0.0469897099
292;2.239750623703003;21.632;-0.0469897099;-0.0469897099
293;2.247664213180542;21.631;-0.0469897099;-0.0469897099
294;2.255643606185913;21.629;-0.0469897099;-0.0469897099
295;2.263554573059082;21.632;-0.0469897099;-0.0469897099
296;2.2714767456054688;21.63;-0.0469897099;-0.0469897099
297;2.279395341873169;21.633;-0.0469897099;-0.0469897099
298;2.287309408187866;21.636;-0.045521281119;-0.045521281119
299;2.2952451705932617;21.633;-0.045521281119;-0.0469897099
300;2.303164005279541;21.633;-0.0469897099;-0.0469897099
301;2.311145305633545;21.633;-0.045521281119;-0.045521281119
302;2.3190667629241943;21.632;-0.0469897099;-0.045521281119
303;2.326981544494629;21.632;-0.045521281119;-0.0469897099
304;2.3349087238311768;21.633;-0.0469897099;-0.045521281119
305;2.3428235054016113;21.632;-0.045521281119;-0.0469897099
306;2.350736618041992;21.634;-0.0469897099;-0.0469897099
307;2.3586549758911133;21.63;-0.0469897099;-0.045521281119
308;2.3665897846221924;21.629;-0.0469897099;-0.045521281119
309;2.37453031539917;21.632;-0.045521281119;-0.045521281119
310;2.3824479579925537;21.632;-0.045521281119;-0.0469897099
311;2.3904433250427246;21.633;-0.0469897099;-0.0469897099
312;2.398359537124634;21.634;-0.045521281119;-0.0469897099
313;2.4062716960906982;21.632;-0.0469897099;-0.045521281119
314;2.414186716079712;21.633;-0.0469897099;-0.0469897099
315;2.422128438949585;21.631;-0.045521281119;-0.0469897099
316;2.430084466934204;21.632;-0.045521281119;-0.0469897099
317;2.4379987716674805;21.632;-0.0469897099;-0.0469897099
318;2.4459054470062256;21.636;-0.0469897099;-0.045521281119
319;2.4538238048553467;21.633;-0.045521281119;-0.0469897099
320;2.461756944656372;21.631;-0.045521281119;-0.0469897099
321;2.4696719646453857;21.633;-0.0469897099;-0.048458138681000004
322;2.477590322494507;21.632;-0.045521281119;-0.0469897099
323;2.486570119857788;21.633;-0.045521281119;-0.0469897099
324;2.494511604309082;21.633;-0.045521281119;-0.045521281119
325;2.5024261474609375;21.632;-0.045521281119;-0.045521281119
326;2.510465383529663;21.636;-0.0469897099;-0.0469897099
327;2.518434524536133;21.632;-0.0469897099;-0.0469897099
328;2.5263805389404297;21.631;-0.0469897099;-0.0469897099
329;2.53436541557312;21.634;-0.045521281119;-0.045521281119
330;2.5423059463500977;21.632;-0.0469897099;-0.045521281119
331;2.5502214431762695;21.635;-0.0469897099;-0.045521281119
332;2.5581367015838623;21.633;-0.045521281119;-0.045521281119
333;2.566046953201294;21.631;-0.0469897099;-0.0469897099
334;2.5739688873291016;21.634;-0.0469897099;-0.0469897099
335;2.581881046295166;21.631;-0.0469897099;-0.045521281119
