;Time;Thrust;BEM pressure;N2O pressure;N2OWeigth
0;0.0;0.009675999999999796;0.02612817173566151;42.35281623269528;1.316781491259917
1;0.015550613403320312;0.009675999999999796;0.02914876962417723;42.356791716454865;1.3021787096771078
2;0.02970576286315918;0.009675999999999796;0.04878265589952979;42.27728204126325;1.2997449127466467
3;0.04432249069213867;0.008675999999999906;0.04878265589952979;42.2653555899845;1.3070463035380442
4;0.05852341651916504;0.008675999999999906;0.03367966645695086;42.269331073744084;1.316781491259917
5;0.07282495498657227;0.008675999999999906;0.05482385167656134;42.269331073744084;1.3070463035380442
6;0.08709573745727539;0.009675999999999796;0.01404578018159841;42.269331073744084;1.2973111158161856
7;0.10136675834655762;0.008675999999999906;0.03670026434546669;42.313061395099474;1.3021787096771078
8;0.1156625747680664;0.008675999999999906;0.030659068568435144;42.356791716454865;1.3094801004685195
9;0.12987542152404785;0.009675999999999796;0.03216936751269306;42.269331073744084;1.3070463035380442
10;0.1441650390625;0.009675999999999796;0.03670026434546669;42.36076720021445;1.3094801004685195
11;0.15837788581848145;0.009675999999999796;0.04274146012249824;42.356791716454865;1.3094801004685195
12;0.17259764671325684;0.009675999999999796;0.006494285460308946;42.18982139855247;1.304612506607583
13;0.18686771392822266;0.009675999999999796;0.05029295484378771;42.269331073744084;1.3021787096771078
14;0.20219945907592773;0.009675999999999796;0.04576205801101396;42.36076720021445;1.316781491259917
15;0.21658730506896973;0.008675999999999906;0.03821056328972461;42.36474268397403;1.3094801004685195
16;0.2307450771331787;0.008675999999999906;0.027638470679919314;42.269331073744084;1.3021787096771078
17;0.24497580528259277;0.009675999999999796;0.03821056328972461;42.33293881389738;1.3021787096771078
18;0.2592484951019287;0.009675999999999796;0.021597274902887764;42.269331073744084;1.304612506607583
19;0.27357053756713867;0.009675999999999796;0.03367966645695086;42.273306557503666;1.3094801004685195
20;0.2877802848815918;0.009675999999999796;0.03367966645695086;42.36474268397403;1.3143476943294559
21;0.30199122428894043;0.008675999999999906;0.01706637807011413;42.32101236261864;1.3143476943294559
22;0.31633996963500977;0.009675999999999796;0.027638470679919314;42.36076720021445;1.2997449127466467
23;0.3306307792663574;0.009675999999999796;0.04123116117824033;42.36076720021445;1.2973111158161856
24;0.34487056732177734;0.009675999999999796;0.02310757384714568;42.273306557503666;1.3094801004685195
25;0.35921454429626465;0.008675999999999906;0.02310757384714568;42.356791716454865;1.3094801004685195
26;0.3735322952270508;0.009675999999999796;0.03216936751269306;42.269331073744084;1.3070463035380442
27;0.38783717155456543;0.009675999999999796;0.03216936751269306;42.28125752502282;1.316781491259917
28;0.40204286575317383;0.009675999999999796;0.03518996540120878;42.36474268397403;1.3094801004685195
29;0.41629672050476074;0.008675999999999906;0.04576205801101396;42.33691429765696;1.304612506607583
30;0.4305887222290039;0.009675999999999796;0.008004584404566861;42.324987846378214;1.304612506607583
31;0.44481849670410156;0.008675999999999906;0.027638470679919314;42.36076720021445;1.304612506607583
32;0.4590790271759033;0.009675999999999796;0.02310757384714568;42.2653555899845;1.3094801004685195
33;0.47339320182800293;0.009675999999999796;0.04274146012249824;42.36076720021445;1.3094801004685195
34;0.487703800201416;0.008675999999999906;0.05029295484378771;42.273306557503666;1.2997449127466467
35;0.501922607421875;0.008675999999999906;0.05784444956507706;42.269331073744084;1.3021787096771078
36;0.5161993503570557;0.009675999999999796;0.01404578018159841;42.36474268397403;1.304612506607583
37;0.5304772853851318;0.009675999999999796;0.030659068568435144;42.356791716454865;1.3070463035380442
38;0.5447149276733398;0.009675999999999796;0.03972086223398241;42.273306557503666;1.304612506607583
39;0.5589239597320557;0.009675999999999796;0.03367966645695086;42.36076720021445;1.3070463035380442
40;0.5731997489929199;0.010675999999999686;0.03670026434546669;42.269331073744084;1.3094801004685195
41;0.587383508682251;0.009675999999999796;0.04274146012249824;42.2653555899845;1.2973111158161856
42;0.6015863418579102;0.010675999999999686;0.027638470679919314;42.2653555899845;1.2997449127466467
43;0.615828275680542;0.009675999999999796;0.04425175906675616;42.36076720021445;1.3119138973989806
44;0.6300768852233887;0.009675999999999796;0.030659068568435144;42.273306557503666;1.3119138973989806
45;0.6486208438873291;0.008675999999999906;0.03367966645695086;42.269331073744084;1.304612506607583
46;0.6672544479370117;0.009675999999999796;0.03670026434546669;42.2653555899845;1.304612506607583
47;0.6859521865844727;0.009675999999999796;0.01102518229308258;42.36076720021445;1.2948773188857103
48;0.7156648635864258;0.009675999999999796;0.03670026434546669;42.36076720021445;1.316781491259917
49;0.7341227531433105;0.008675999999999906;0.04576205801101396;42.28125752502282;1.3143476943294559
50;0.7484033107757568;0.008675999999999906;0.04425175906675616;42.313061395099474;1.3119138973989806
51;0.762702226638794;0.009675999999999796;0.01102518229308258;42.2653555899845;1.3094801004685195
52;0.7769782543182373;0.008675999999999906;0.059354748509334976;42.368718167733604;1.304612506607583
53;0.7912008762359619;0.008675999999999906;0.04274146012249824;42.269331073744084;1.3070463035380442
54;0.8054516315460205;0.008675999999999906;0.03972086223398241;42.32101236261864;1.304612506607583
55;0.8196976184844971;0.008675999999999906;0.04878265589952979;42.285233008782406;1.3094801004685195
56;0.8340075016021729;0.008675999999999906;0.04274146012249824;42.36076720021445;1.3094801004685195
57;0.8483543395996094;0.009675999999999796;0.03821056328972461;42.28920849254199;1.3070463035380442
58;0.8625950813293457;0.008675999999999906;0.03216936751269306;42.36076720021445;1.3094801004685195
59;0.8769009113311768;0.009675999999999796;0.03367966645695086;42.36076720021445;1.3094801004685195
60;0.8911268711090088;0.009675999999999796;0.04274146012249824;42.356791716454865;1.3070463035380442
61;0.9053354263305664;0.009675999999999796;0.03670026434546669;42.36076720021445;1.3094801004685195
62;0.9196033477783203;0.008675999999999906;0.030659068568435144;42.31703687885906;1.316781491259917
63;0.9339091777801514;0.008675999999999906;0.00045308968327739674;42.273306557503666;1.3119138973989806
64;0.9481120109558105;0.008675999999999906;0.024617872791403594;42.36474268397403;1.316781491259917
65;0.9623348712921143;0.009675999999999796;0.03518996540120878;42.356791716454865;1.3119138973989806
66;0.9766755104064941;0.008675999999999906;0.053313552732303426;42.313061395099474;1.316781491259917
67;0.9908773899078369;0.008675999999999906;0.04727235695527188;42.36076720021445;1.3143476943294559
68;1.005211353302002;0.009675999999999796;0.5683254927242427;44.05432328179592;1.14884950305769
69;1.0579197406768799;0.010675999999999686;0.48827964867857476;43.38644201018632;1.178055066223294
70;1.072157382965088;0.009675999999999796;0.3704763310264596;43.04455040686236;1.2510689741373113
71;1.0866971015930176;0.008675999999999906;0.26475540492840755;42.86167815392164;1.2924435219552493
72;1.1008789539337158;0.009675999999999796;0.21340524082363937;42.6827813847405;1.2681055526505673
73;1.1238789558410645;0.009675999999999796;0.19377135454828687;42.63507557962553;1.2705393495810426
74;1.1380987167358398;0.009675999999999796;0.18470956088273954;42.71856073857673;1.2875759280943129
75;1.152503490447998;0.008675999999999906;0.15450358199758185;42.64302654714469;1.3143476943294559
76;1.1668083667755127;0.008675999999999906;0.08351953161746117;42.56351687195307;1.3119138973989806
77;1.1810259819030762;0.009675999999999796;0.11372551050261892;42.48400719676145;1.3070463035380442
78;1.1952509880065918;0.008675999999999906;0.1363799946664872;42.50786009931894;1.3021787096771078
79;1.2095346450805664;0.009675999999999796;0.13335939677797143;42.543639453155166;1.3070463035380442
80;1.2238554954528809;0.009675999999999796;0.1242976031124241;42.5158110668381;1.3143476943294559
81;1.2379934787750244;0.008675999999999906;0.1439314893877766;42.55556590443391;1.3119138973989806
82;1.2522132396697998;0.009675999999999796;0.14242119044351875;42.583394290750974;1.2875759280943129
83;1.2665178775787354;0.009675999999999796;0.16960657144016067;42.64700203090427;1.2632379587896452
84;1.2807366847991943;0.009675999999999796;0.16960657144016067;42.71060977105756;1.2705393495810426
85;1.2949705123901367;0.009675999999999796;0.15752417988609763;42.627124612106364;1.2729731465115037
86;1.309389591217041;0.009675999999999796;0.18924045771551323;42.56749235571265;1.1683198785014213
87;1.3236963748931885;0.009675999999999796;0.2028331482138342;42.5992962257893;1.022292062673401
88;1.3379571437835693;0.010675999999999686;0.31912616692169143;42.53966396939558;0.883565637636778
89;1.3522350788116455;0.009675999999999796;0.5411401117276008;42.46015429420397;0.9006022161500482
90;1.3665225505828857;0.009675999999999796;0.8658543847430464;42.33293881389738;0.9054698100109704
91;1.3807222843170166;0.009675999999999796;1.3280058616859596;42.15006656095666;0.8032503389313632
92;1.395099401473999;0.009675999999999796;1.9578005214414982;41.696861412364434;0.6742591016165989
93;1.4093022346496582;0.010675999999999686;2.8413254038323617;41.2873865851276;0.6474873353814701
94;1.4235870838165283;0.009675999999999796;3.87134928381624;40.85405885533328;0.7618757911134253
95;1.4377667903900146;0.008675999999999906;5.014645584619461;40.64733369983507;0.9590133424812564
96;1.4548146724700928;0.009675999999999796;6.734876082129194;40.08281500597458;1.080703189004609
97;1.4734642505645752;0.010675999999999686;8.506456743743694;39.82440856160182;1.1318129245444197
98;1.4921550750732422;0.010675999999999686;10.341469961017026;39.79658017528475;1.1001735644483404
99;1.5109798908233643;0.010675999999999686;12.0027987997007;39.48251695827786;1.1853564570146915
100;1.529674768447876;0.010675999999999686;13.602205381669803;39.40698276684582;1.207260629388898
101;1.5485074520111084;0.010675999999999686;15.142710304812846;38.95775310201318;1.1731874723623577
102;1.56718111038208;0.010675999999999686;16.575984002913582;38.436964729508084;1.1902240508756279
103;1.5920846462249756;0.01167600000000002;18.305276294088863;38.13085248002035;1.2121282232498345
104;1.6116867065429688;0.01167600000000002;19.540700830491815;37.95593119459879;1.1999592385975006
105;1.6302931308746338;0.01167600000000002;20.640198461911556;37.590186688717345;1.2705393495810426
106;1.6476330757141113;0.01167600000000002;21.523723344302418;37.51067701352573;1.2656717557201063
107;1.6618239879608154;0.010675999999999686;22.292465506929684;37.38346153321914;1.2291648017631047
108;1.6760966777801514;0.01267599999999991;22.997775113898115;37.17673637772093;1.207260629388898
109;1.6904046535491943;0.01267599999999991;23.650224257817523;36.97796218974189;1.2169958171107709
110;1.7046635150909424;0.01167600000000002;24.28757041229435;36.96603573846314;1.234032395624041
111;1.7189793586730957;0.01167600000000002;24.83127803222719;36.699678326571224;1.2242972079021683
112;1.7332820892333984;0.01167600000000002;25.34477967327487;36.5168060736305;1.1902240508756279
113;1.7475757598876953;0.01167600000000002;25.841668025935718;36.5168060736305;1.1853564570146915
114;1.761796474456787;0.010675999999999686;26.270592926104957;36.33393382068978;1.1658860815709602
115;1.7760934829711914;0.01267599999999991;26.66025005372349;36.166963502787375;1.151283299988151
116;1.7904012203216553;0.010675999999999686;27.058968975007573;36.03974802248079;1.1245115337530223
117;1.8046472072601318;0.01267599999999991;27.427481917406496;35.98409124984666;1.1196439398920859
118;1.8189098834991455;0.01267599999999991;27.776360973530068;35.809169964425095;1.1415481122662783
119;1.8333067893981934;0.01167600000000002;28.101075246545516;35.693880935397246;1.2121282232498345
120;1.8475325107574463;0.01267599999999991;28.385011448066;35.57064093885024;1.1877902539451668
121;1.861762523651123;0.01267599999999991;28.65686525803242;35.35596481583287;1.1245115337530223
122;1.8761472702026367;0.01267599999999991;28.893982192280905;35.26055320560293;1.1537170969186263
123;1.8904812335968018;0.01167600000000002;29.072197467703337;35.17706804665173;1.1902240508756279
124;1.9047307968139648;0.01167600000000002;29.330458587171435;34.99419579371101;1.2315985986935658
125;1.9273436069488525;0.01167600000000002;29.486019378429997;34.90673515100023;1.1391143153358172
126;1.9416453838348389;0.01167600000000002;29.63402867496727;34.791446121972385;1.0636666104913388
127;1.9559531211853027;0.010675999999999686;29.75334229156364;34.72386289805951;1.0490638289085297
128;1.9702069759368896;0.01167600000000002;29.786568868337316;34.54099064511878;1.1342467214748808
129;1.984489917755127;0.01167600000000002;29.88473829971408;34.453530002408;1.1585846907795485
130;1.9986798763275146;0.01167600000000002;29.94666055642865;34.38197129473555;1.1318129245444197
131;2.012932538986206;0.01167600000000002;29.970825339536777;34.17524613923734;1.107474955239752
132;2.0271942615509033;0.01167600000000002;30.01915490575303;34.187172590516084;1.14884950305769
133;2.041375160217285;0.01167600000000002;29.994990122644904;34.00827582133494;1.2169958171107709
134;2.055534839630127;0.01267599999999991;30.00556221525471;33.944668081181646;1.27784074037244
135;2.0697245597839355;0.01267599999999991;30.007072514198967;33.7657713120005;1.2291648017631047
136;2.0840795040130615;0.01167600000000002;29.98290773109084;33.82142808463464;1.1026073613788157
137;2.098259449005127;0.01167600000000002;30.013113709976;33.67433518553015;1.0368948442561958
138;2.1149752140045166;0.01167600000000002;29.973845937425295;33.60277647785769;1.092872173656943
139;2.1293129920959473;0.01167600000000002;29.987438627923616;33.73396744192386;1.1318129245444197
140;2.143583059310913;0.01167600000000002;29.95421205114994;33.60675196161727;1.1026073613788157
141;2.157749652862549;0.01267599999999991;29.902861887045173;33.24895842325498;1.022292062673401
142;2.171907663345337;0.01167600000000002;29.822816042999506;32.91104230369061;0.9857851087163851
143;2.1861143112182617;0.01167600000000002;29.788079167281573;32.83153262849899;0.9906527025773215
144;2.2004032135009766;0.010675999999999686;29.76995557995048;32.70034166443282;1.0052554841601307
145;2.21462082862854;0.01167600000000002;29.71256422006868;32.80370424218192;1.0076892810905917
146;2.2288577556610107;0.01267599999999991;29.65517286018688;32.82755714473941;1.022292062673401
147;2.2431914806365967;0.01267599999999991;29.5826785108625;32.907066819931025;0.9736161240640513
148;2.2574002742767334;0.01167600000000002;29.529818047813475;32.91899327120977;0.9079036069414457
149;2.2716052532196045;0.01167600000000002;29.463364894266128;32.82755714473941;0.8811318407063027
150;2.2859110832214355;0.01167600000000002;29.399932338607297;32.74009650202863;0.8786980437758416
151;2.3001067638397217;0.01167600000000002;29.32592769033866;32.50951844397294;0.8884332314977144
152;2.323058605194092;0.01167600000000002;29.188490486411194;32.28291586967682;0.8421910898188258
153;2.3372724056243896;0.01167600000000002;29.115996137086814;32.461812638857964;0.7691771819048228
154;2.3543810844421387;0.01167600000000002;29.0268884993756;32.24316103208101;0.8008165420008879
155;2.3730719089508057;0.01167600000000002;28.94835295427419;32.30279328847473;0.883565637636778
156;2.3917317390441895;0.01167600000000002;28.853204120785943;31.67466685446095;0.9054698100109704
157;2.4102783203125;0.01167600000000002;28.76258618413047;31.531549439116034;0.9079036069414457
158;2.42893123626709;0.01267599999999991;28.658375556976676;31.46794169896274;0.8908670284281754
159;2.447613000869751;0.01167600000000002;28.56171642454417;31.07436880676423;0.8957346222891118
160;2.4662885665893555;0.01167600000000002;28.49677356994108;31.575279760471425;0.912771200802382
161;2.4848482608795166;0.010675999999999686;28.439382210059282;31.444088796405254;0.9638809363421927
162;2.503563165664673;0.01167600000000002;28.329130387128455;31.3725300887328;0.980917514855463
163;2.5221519470214844;0.01167600000000002;28.185651987423956;31.149902998196268;0.9638809363421927
164;2.540820598602295;0.01167600000000002;28.122219431765124;30.939202358938477;0.9736161240640513
165;2.5593855381011963;0.01167600000000002;28.021029402499845;30.931251391419316;1.0028216872296554
166;2.5780272483825684;0.010675999999999686;27.944004156342693;30.796084943593566;1.0125568749515281
167;2.596705913543701;0.01167600000000002;27.86697891018554;30.784158492314823;0.9979540933687332
168;2.615290880203247;0.01167600000000002;27.792974261916907;30.73247720344027;1.0320272503952594
169;2.6339895725250244;0.01167600000000002;27.687253335818852;30.573457853057032;1.0320272503952594
170;2.65263032913208;0.01167600000000002;27.610228089661703;30.350830762520502;1.0393286411866711
171;2.6711790561676025;0.01167600000000002;27.506017462507906;30.41841398643338;1.0003878902991943
172;2.6899657249450684;0.01167600000000002;27.42446131951798;30.315051408684273;0.9979540933687332
173;2.708634614944458;0.01167600000000002;27.34592577441657;30.20373786341601;1.0174244688124645
174;2.7272534370422363;0.010675999999999686;27.24624604409555;30.16000754206062;1.0076892810905917
175;2.7459070682525635;0.01167600000000002;27.17526199371543;30.064595931830677;1.0003878902991943
176;2.7644400596618652;0.01167600000000002;27.09672644861402;29.95328238656241;1.022292062673401
177;2.783165693283081;0.01167600000000002;27.003087914070033;29.77438561738127;1.0441962350476075
178;2.8018434047698975;0.01167600000000002;26.90491848269327;29.710777877227976;1.0490638289085297
179;2.8205642700195312;0.01167600000000002;26.806749051316505;29.619341750757613;1.0198582657429256
180;2.8391919136047363;0.01167600000000002;26.71613111466103;29.63524368579594;0.9857851087163851
181;2.8578226566314697;0.01167600000000002;26.66931184738904;29.531881108046832;0.9711823271335902
182;2.876471519470215;0.01167600000000002;26.593796900176145;29.440444981576473;1.0174244688124645
183;2.895076274871826;0.01167600000000002;26.485055376189575;29.03494563809922;1.0320272503952594
184;2.9137001037597656;0.01167600000000002;26.423133119475004;29.17806305344413;1.0174244688124645
185;2.932323694229126;0.01167600000000002;26.364231460648945;29.090602410733354;1.0149906718819892
186;2.9509365558624268;0.010675999999999686;26.270592926104957;29.26552369615491;1.0076892810905917
187;2.969747304916382;0.01167600000000002;26.202629473613353;29.08662692697377;1.0003878902991943
188;2.988471031188965;0.01167600000000002;26.12409392851194;28.848097901398916;0.9882189056468604
189;3.0071558952331543;0.010675999999999686;26.038006888689242;28.808343063803107;1.0028216872296554
190;3.0258805751800537;0.010675999999999686;25.971553735141896;28.63739726214113;0.983351311785924
191;3.0445053577423096;0.01167600000000002;25.879425499542165;28.720882421092327;0.9760499209945266
192;3.063256025314331;0.01167600000000002;25.808441449162043;28.490304363036632;0.9882189056468604
193;3.0818817615509033;0.01167600000000002;25.707251419896764;28.450549525440824;0.9711823271335902
194;3.1005895137786865;0.010675999999999686;25.607571689575742;28.307432110095913;0.927373982385177
195;3.1303982734680176;0.01167600000000002;25.53205674236285;28.17226566227016;0.9054698100109704
196;3.1490018367767334;0.01267599999999991;25.420294620487766;28.184192113548903;0.9200725915937795
197;3.1643190383911133;0.01167600000000002;25.37347535321577;27.9973443768486;0.9249401854547159
198;3.1785895824432373;0.01267599999999991;25.314573694389715;28.017221795646506;0.9079036069414457
199;3.1929094791412354;0.01167600000000002;25.257182334507913;27.95361405549321;0.8859994345672391
200;3.2071692943573;0.01167600000000002;25.1967703767376;27.925785669176143;0.8640952621930325
