;Time;Thrust;BEM pressure;N2O pressure
0;0.0;0;0;0
1;0.00805807113647461;0;0;0
2;0.015344858169555664;0;0;0
3;0.022624731063842773;0;0;0
4;0.02989673614501953;0;0;0
5;0.03715991973876953;0;0;0
6;0.044440507888793945;0;0;0
7;0.05172538757324219;0;0;0
8;0.05901479721069336;0;0;0
9;0.06629467010498047;0;0;0
10;0.07357192039489746;0;0;0
11;0.08085083961486816;0;0;0
12;0.08812904357910156;0;0;0
13;0.09540486335754395;0;0;0
14;0.1026926040649414;0;0;0
15;0.10997343063354492;0;0;0
16;0.11726665496826172;0;0;0
17;0.12454700469970703;0;0;0
18;0.13182592391967773;0;0;0
19;0.1391136646270752;0;0;0
20;0.1466050148010254;0;0;0
21;0.15387678146362305;0;0;0
22;0.16115307807922363;0;0;0
23;0.16842436790466309;0;0;0
24;0.17570257186889648;0;0;0
25;0.18298602104187012;0;0;0
26;0.1902632713317871;0;0;0
27;0.1975388526916504;0;0;0
28;0.2048172950744629;0;0;0
29;0.21209502220153809;0;0;0
30;0.21936869621276855;0;0;0
31;0.22665834426879883;0;0;0
32;0.23394131660461426;0;0;0
33;0.24122214317321777;0;0;0
34;0.24850249290466309;0;0;0
35;0.2557985782623291;0;0;0
36;0.2630908489227295;0;0;0
37;0.2703709602355957;0;0;0
38;0.27764463424682617;0;0;0
39;0.2849738597869873;0;0;0
40;0.2922520637512207;0;0;0
41;0.2995269298553467;0;0;0
42;0.3068275451660156;0;0;0
43;0.3141045570373535;0;0;0
44;0.3213839530944824;0;0;0
45;0.32867980003356934;0;0;0
46;0.335956335067749;0;0;0
47;0.3432331085205078;0;0;0
48;0.3505120277404785;0;0;0
49;0.3577897548675537;0;0;0
50;0.3650639057159424;0;0;0
51;0.37233948707580566;0;0;0
52;0.37963318824768066;0;0;0
53;0.38691186904907227;0;0;0
54;0.39418697357177734;0;0;0
55;0.40146303176879883;0;0;0
56;0.4087400436401367;0;0;0
57;0.4160141944885254;0;0;0
58;0.4232900142669678;0;0;0
59;0.43056321144104004;0;0;0
60;0.4378364086151123;0;0;0
61;0.44510841369628906;0;0;0
62;0.4523952007293701;0;0;0
63;0.4596681594848633;0;0;0
64;0.4669506549835205;0;0;0
65;0.4742250442504883;0;0;0
66;0.48149919509887695;0;0;0
67;0.4887728691101074;0;0;0
68;0.4960474967956543;0;0;0
69;0.5033431053161621;0;0;0
70;0.5106217861175537;0;0;0
71;0.5178987979888916;0;0;0
72;0.5251731872558594;0;0;0
73;0.5324480533599854;0;0;0
74;0.5397305488586426;0;0;0
75;0.5470049381256104;0;0;0
76;0.5542819499969482;0;0;0
77;0.5615642070770264;0;0;0
78;0.5688426494598389;0;0;0
79;0.5761170387268066;0;0;0
80;0.5833919048309326;0;0;0
81;0.5906679630279541;0;0;0
82;0.5979447364807129;0;0;0
83;0.6052215099334717;0;0;0
84;0.6124963760375977;0;0;0
85;0.6197710037231445;0;0;0
86;0.6270589828491211;0;0;0
87;0.6343340873718262;0;0;0
88;0.6416654586791992;0;0;0
89;0.6489441394805908;0;0;0
90;0.6562364101409912;0;0;0
91;0.6643517017364502;0;0;0
92;0.6739368438720703;0;0;0
93;0.683570384979248;0;0;0
94;0.6933712959289551;0;0;0
95;0.7072856426239014;0;0;0
96;0.7171399593353271;0;0;0
97;0.7266671657562256;0;0;0
98;0.7361862659454346;0;0;0
99;0.7457311153411865;0;0;0
100;0.755255937576294;0;0;0
101;0.7650623321533203;0;0;0
102;0.7746169567108154;0;0;0
103;0.7852418422698975;0;0;0
104;0.7948062419891357;0;0;0
105;0.8043360710144043;0;0;0
106;0.8138833045959473;0;0;0
107;0.823430061340332;0;0;0
108;0.8329737186431885;0;0;0
109;0.8427059650421143;0;0;0
110;0.8522622585296631;0;0;0
111;0.8618946075439453;0;0;0
112;0.8714430332183838;0;0;0
113;0.8810546398162842;0;0;0
114;0.8906075954437256;0;0;0
115;0.9001548290252686;0;0;0
116;0.9097068309783936;0;0;0
117;0.9192543029785156;0;0;0
118;0.9288077354431152;0;0;0
119;0.938361406326294;0;0;0
120;0.9479074478149414;0;0;0
121;0.9574575424194336;0;0;0
122;0.9670462608337402;0;0;0
123;0.9765934944152832;0;0;0
124;0.9861433506011963;0;0;0
125;0.9957456588745117;0;0;0
126;1.0053131580352783;0;0;0
127;1.0148632526397705;0;0;0
128;1.024406909942627;0;0;0
129;1.0339598655700684;0;0;0
130;1.0435519218444824;0;0;0
131;1.0531065464019775;0;0;0
132;1.0626590251922607;0;0;0
133;1.0722544193267822;0;0;0
134;1.0818438529968262;0;0;0
135;1.0913934707641602;0;0;0
136;1.1009461879730225;0;0;0
137;1.110506534576416;0;0;0
138;1.1200621128082275;0;0;0
139;1.129617691040039;0;0;0
140;1.1391746997833252;0;0;0
141;1.1487252712249756;0;0;0
142;1.1582767963409424;0;0;0
143;1.1678590774536133;0;0;0
144;1.1774427890777588;0;0;0
145;1.1869971752166748;0;0;0
146;1.1965575218200684;0;0;0
147;1.2061185836791992;0;0;0
148;1.21571946144104;0;0;0
149;1.2252750396728516;0;0;0
150;1.2348287105560303;0;0;0
151;1.2443795204162598;0;0;0
152;1.2539339065551758;0;0;0
153;1.2635269165039062;0;0;0
154;1.2731261253356934;0;0;0
155;1.282681941986084;0;0;0
156;1.2922542095184326;0;0;0
157;1.3018357753753662;0;0;0
158;1.3113834857940674;0;0;0
159;1.3209319114685059;0;0;0
160;1.3304946422576904;0;0;0
161;1.3400461673736572;0;0;0
162;1.349597454071045;0;0;0
163;1.359156608581543;0;0;0
164;1.3687479496002197;0;0;0
165;1.3782985210418701;0;0;0
166;1.3878452777862549;0;0;0
167;1.3973958492279053;0;0;0
168;1.4069499969482422;0;0;0
169;1.4165034294128418;0;0;0
170;1.429231882095337;0;0;0
171;1.4391398429870605;0;0;0
172;1.4486799240112305;0;0;0
173;1.45820951461792;0;0;0
174;1.4677810668945312;0;0;0
175;1.4773402214050293;0;0;0
176;1.4868981838226318;0;0;0
177;1.496455430984497;0;0;0
178;1.506011962890625;0;0;0
179;1.5155596733093262;0;0;0
180;1.525104284286499;0;0;0
181;1.5346593856811523;0;0;0
182;1.5442144870758057;0;0;0
183;1.55377197265625;0;0;0
184;1.5633249282836914;0;0;0
185;1.5729124546051025;0;0;0
186;1.5825035572052002;0;0;0
187;1.592055082321167;0;0;0
188;1.601609468460083;0;0;0
189;1.6111700534820557;0;0;0
190;1.620727300643921;0;0;0
191;1.6303198337554932;0;0;0
192;1.6398727893829346;0;0;0
193;1.649461269378662;0;0;0
194;1.6590166091918945;0;0;0
195;1.6685938835144043;0;0;0
196;1.6782331466674805;0;0;0
197;1.6877930164337158;0;0;0
198;1.6980152130126953;0;0;0
199;1.71152663230896;0;0;0
200;1.7211148738861084;0;0;0
201;1.7306451797485352;0;0;0
202;1.7401692867279053;0;0;0
203;1.7496898174285889;0;0;0
204;1.7592427730560303;0;0;0
205;1.7688217163085938;0;0;0
206;1.7783429622650146;0;0;0
207;1.7880992889404297;0;0;0
208;1.7976229190826416;0;0;0
209;1.8072047233581543;0;0;0
210;1.816788911819458;0;0;0
211;1.8263270854949951;0;0;0
212;1.8358850479125977;0;0;0
213;1.8465373516082764;0;0;0
214;1.8560969829559326;0;0;0
215;1.8657312393188477;0;0;0
216;1.8752853870391846;0;0;0
217;1.8848769664764404;0;0;0
218;1.8944361209869385;0;0;0
219;1.9039864540100098;0;0;0
220;1.9135785102844238;0;0;0
221;1.9231328964233398;0;0;0
222;1.9326825141906738;0;0;0
223;1.9422338008880615;0;0;0
224;1.9518225193023682;0;0;0
225;1.9613821506500244;0;0;0
226;1.9709699153900146;0;0;0
227;1.9805219173431396;0;0;0
228;1.9900684356689453;0;0;0
229;1.9996373653411865;0;0;0
230;2.0091896057128906;0;0;0
231;2.0197031497955322;0;0;0
232;2.0292394161224365;0;0;0
233;2.038949966430664;0;0;0
234;2.048478364944458;0;0;0
235;2.0580270290374756;0;0;0
236;2.06756854057312;0;0;0
237;2.0771477222442627;0;0;0
238;2.0867016315460205;0;0;0
239;2.0962932109832764;0;0;0
240;2.105861186981201;0;0;0
241;2.115410327911377;0;0;0
242;2.124994993209839;0;0;0
243;2.1345434188842773;0;0;0
244;2.144087076187134;0;0;0
245;2.153639793395996;0;0;0
246;2.1631922721862793;0;0;0
247;2.172778606414795;0;0;0
248;2.182354688644409;0;0;0
249;2.192006826400757;0;0;0
250;2.2016475200653076;0;0;0
251;2.2111899852752686;0;0;0
252;2.22072434425354;0;0;0
253;2.2302584648132324;0;0;0
254;2.239807605743408;0;0;0
255;2.2493953704833984;0;0;0
256;2.2589516639709473;0;0;0
257;2.268502950668335;0;0;0
258;2.278049945831299;0;0;0
259;2.2876875400543213;0;0;0
260;2.2972826957702637;0;0;0
261;2.306842803955078;0;0;0
262;2.3163957595825195;0;0;0
263;2.3259129524230957;0;0;0
264;2.3355345726013184;0;0;0
265;2.3453969955444336;0;0;0
266;2.355013132095337;0;0;0
267;2.3645782470703125;0;0;0
268;2.374173402786255;0;0;0
269;2.3837380409240723;0;0;0
270;2.3932902812957764;0;0;0
271;2.402848243713379;0;0;0
272;2.4124059677124023;0;0;0
273;2.421976327896118;0;0;0
274;2.431537389755249;0;0;0
275;2.4410946369171143;0;0;0
276;2.450655460357666;0;0;0
277;2.4602108001708984;0;0;0
278;2.469748020172119;0;0;0
279;2.479276657104492;0;0;0
280;2.4888267517089844;0;0;0
281;2.498380184173584;0;0;0
282;2.507939338684082;0;0;0
283;2.517490863800049;0;0;0
284;2.527045488357544;0;0;0
285;2.5365943908691406;0;0;0
286;2.546138048171997;0;0;0
287;2.5557241439819336;0;0;0
288;2.5652761459350586;0;0;0
289;2.574867010116577;0;0;0
290;2.584419012069702;0;0;0
291;2.5939676761627197;0;0;0
292;2.603557825088501;0;0;0
293;2.6131083965301514;0;0;0
294;2.622657060623169;0;0;0
295;2.632202625274658;0;0;0
296;2.641866445541382;0;0;0
297;2.6514289379119873;0;0;0
298;2.6609950065612793;0;0;0
299;2.6705803871154785;0;0;0
300;2.6802568435668945;0;0;0
301;2.6898136138916016;0;0;0
302;2.702866315841675;0;0;0
303;2.7135567665100098;0;0;0
304;2.723123073577881;0;0;0
305;2.7326416969299316;0;0;0
306;2.742161273956299;0;0;0
307;2.7516849040985107;0;0;0
308;2.76120924949646;0;0;0
309;2.770784378051758;0;0;0
310;2.780341625213623;0;0;0
311;2.7898600101470947;0;0;0
312;2.7994041442871094;0;0;0
313;2.8089499473571777;0;0;0
314;2.81850528717041;0;0;0
315;2.8280720710754395;0;0;0
316;2.837606191635132;0;0;0
317;2.8471882343292236;0;0;0
318;2.8567562103271484;0;0;0
319;2.866319179534912;0;0;0
320;2.8759286403656006;0;0;0
321;2.88552188873291;0;0;0
322;2.8950836658477783;0;0;0
323;2.90572190284729;0;0;0
324;2.9153144359588623;0;0;0
325;2.9248688220977783;0;0;0
326;2.9381368160247803;0;0;0
327;2.947673797607422;0;0;0
328;2.9572367668151855;0;0;0
329;2.9667606353759766;0;0;0
330;2.9763600826263428;0;0;0
331;2.9859156608581543;0;0;0
332;2.995476484298706;0;0;0
333;3.0050251483917236;0;0;0
334;3.0145814418792725;0;0;0
335;3.024137020111084;0;0;0
336;3.033698558807373;0;0;0
337;3.043254852294922;0;0;0
338;3.0528111457824707;0;0;0
339;3.0623722076416016;0;0;0
340;3.071925401687622;0;0;0
341;3.0814785957336426;0;0;0
342;3.0910351276397705;0;0;0
343;3.100590467453003;0;0;0
344;3.1101536750793457;0;0;0
345;3.1197116374969482;0;0;0
346;3.129268169403076;0;0;0
347;3.138817071914673;0;0;0
348;3.1483685970306396;0;0;0
349;3.1579267978668213;0;0;0
350;3.167487621307373;0;0;0
351;3.1772546768188477;0;0;0
352;3.1868293285369873;0;0;0
353;3.1963908672332764;0;0;0
354;3.2059521675109863;0;0;0
355;3.215735673904419;0;0;0
356;3.2254648208618164;0;0;0
357;3.2350077629089355;0;0;0
358;3.2445945739746094;0;0;0
359;3.2541284561157227;0;0;0
360;3.2636804580688477;0;0;0
361;3.2732791900634766;0;0;0
362;3.2828359603881836;0;0;0
363;3.2924163341522217;0;0;0
364;3.3019797801971436;0;0;0
365;3.3115384578704834;0;0;0
366;3.3211019039154053;0;0;0
367;3.3306643962860107;0;0;0
368;3.340221405029297;0;0;0
369;3.3497848510742188;0;0;0
370;3.359400987625122;0;0;0
371;3.3689639568328857;0;0;0
372;3.378566026687622;0;0;0
373;3.3881278038024902;0;0;0
374;3.397690534591675;0;0;0
375;3.4072842597961426;0;0;0
376;3.416846513748169;0;0;0
377;3.426406145095825;0;0;0
378;3.4359664916992188;0;0;0
379;3.445526361465454;0;0;0
380;3.455082893371582;0;0;0
381;3.4646434783935547;0;0;0
382;3.474195957183838;0;0;0
383;3.483757972717285;0;0;0
384;3.493319511413574;0;0;0
385;3.502883195877075;0;0;0
386;3.5124566555023193;0;0;0
387;3.522021532058716;0;0;0
388;3.5315840244293213;0;0;0
389;3.541139841079712;0;0;0
390;3.5506927967071533;0;0;0
391;3.560255289077759;0;0;0
392;3.5698137283325195;0;0;0
393;3.5794520378112793;0;0;0
394;3.5890119075775146;0;0;0
395;3.59857439994812;0;0;0
396;3.6081297397613525;0;0;0
397;3.617680311203003;0;0;0
398;3.627277135848999;0;0;0
399;3.6368606090545654;0;0;0
400;3.646407127380371;0;0;0
401;3.6559741497039795;0;0;0
402;3.66550874710083;0;0;0
403;3.6750898361206055;0;0;0
404;3.6847047805786133;0;0;0
405;3.6943106651306152;0;0;0
406;3.707573413848877;0;0;0
407;3.7177305221557617;0;0;0
408;3.7273035049438477;0;0;0
409;3.7368314266204834;0;0;0
410;3.746356248855591;0;0;0
411;3.7558791637420654;0;0;0
412;3.7654078006744385;0;0;0
413;3.7749669551849365;0;0;0
414;3.7844934463500977;0;0;0
415;3.794027090072632;0;0;0
416;3.8035800457000732;0;0;0
417;3.8131096363067627;0;0;0
418;3.822674036026001;0;0;0
419;3.832231283187866;0;0;0
420;3.841834783554077;0;0;0
421;3.851396322250366;0;0;0
422;3.8609607219696045;0;0;0
423;3.870525360107422;0;0;0
424;3.8801660537719727;0;0;0
425;3.8897650241851807;0;0;0
426;3.899351119995117;0;0;0
427;3.9088873863220215;0;0;0
428;3.918444871902466;0;0;0
429;3.9280009269714355;0;0;0
430;3.93757963180542;0;0;0
431;3.947216749191284;0;0;0
432;3.9567813873291016;0;0;0
433;3.9663403034210205;0;0;0
434;3.9771697521209717;0;0;0
435;3.986743211746216;0;0;0
436;3.996314525604248;0;0;0
437;4.005863189697266;0;0;0
438;4.015422344207764;0;0;0
439;4.025015115737915;0;0;0
440;4.034559726715088;0;0;0
441;4.044108629226685;0;0;0
442;4.05366587638855;0;0;0
443;4.0632243156433105;0;0;0
444;4.072778940200806;0;0;0
445;4.08237361907959;0;0;0
446;4.09192681312561;0;0;0
447;4.1014745235443115;0;0;0
448;4.111030340194702;0;0;0
449;4.12058424949646;0;0;0
450;4.130136966705322;0;0;0
451;4.139689922332764;0;0;0
452;4.149247169494629;0;0;0
453;4.158807277679443;0;0;0
454;4.168377161026001;0;0;0
455;4.177974700927734;0;0;0
456;4.187528848648071;0;0;0
457;4.197080850601196;0;0;0
458;4.206635475158691;0;0;0
459;4.216198444366455;0;0;0
460;4.225815534591675;0;0;0
461;4.235379219055176;0;0;0
462;4.245370388031006;0;0;0
463;4.254918336868286;0;0;0
464;4.2644877433776855;0;0;0
465;4.274029731750488;0;0;0
466;4.283669948577881;0;0;0
467;4.293250322341919;0;0;0
468;4.302804946899414;0;0;0
469;4.312366008758545;0;0;0
470;4.321925163269043;0;0;0
471;4.33148455619812;0;0;0
472;4.341044902801514;0;0;0
473;4.350603818893433;0;0;0
474;4.360161542892456;0;0;0
475;4.3697192668914795;0;0;0
476;4.379268646240234;0;0;0
477;4.388828754425049;0;0;0
478;4.398385047912598;0;0;0
479;4.4079508781433105;0;0;0
480;4.417518138885498;0;0;0
481;4.427075147628784;0;0;0
482;4.439146518707275;0;0;0
483;4.448699951171875;0;0;0
484;4.458236455917358;0;0;0
485;4.46777606010437;0;0;0
486;4.477335214614868;0;0;0
487;4.486940860748291;0;0;0
488;4.4964964389801025;0;0;0
489;4.506051063537598;0;0;0
490;4.515609264373779;0;0;0
491;4.52516508102417;0;0;0
492;4.534722805023193;0;0;0
493;4.544280052185059;0;0;0
494;4.553835391998291;0;0;0
495;4.563396692276001;0;0;0
496;4.572950601577759;0;0;0
497;4.582587003707886;0;0;0
498;4.5921502113342285;0;0;0
499;4.601712465286255;0;0;0
500;4.611272573471069;0;0;0
501;4.620835781097412;0;0;0
502;4.630436658859253;0;0;0
503;4.639991998672485;0;0;0
504;4.649578809738159;0;0;0
505;4.659128904342651;0;0;0
506;4.668688535690308;0;0;0
507;4.678261756896973;0;0;0
508;4.687880516052246;0;0;0
509;4.697705507278442;0;0;0
510;4.711683750152588;0;0;0
511;4.721998929977417;0;0;0
512;4.731540679931641;0;0;0
513;4.741074085235596;0;0;0
514;4.750600814819336;0;0;0
515;4.760134696960449;0;0;0
516;4.769670724868774;0;0;0
517;4.779198169708252;0;0;0
518;4.788771629333496;0;0;0
519;4.798300504684448;0;0;0
520;4.807821035385132;0;0;0
521;4.817383050918579;0;0;0
522;4.826925039291382;0;0;0
523;4.836491584777832;0;0;0
524;4.846051216125488;0;0;0
525;4.8556153774261475;0;0;0
526;4.865183115005493;0;0;0
527;4.874744176864624;0;0;0
528;4.88438868522644;0;0;0
529;4.893982410430908;0;0;0
530;4.9035868644714355;0;0;0
531;4.913155794143677;0;0;0
532;4.922719240188599;0;0;0
533;4.932278394699097;0;0;0
534;4.941864967346191;0;0;0
535;4.951430797576904;0;0;0
536;4.9609832763671875;0;0;0
537;4.971404552459717;0;0;0
538;4.980985403060913;0;0;0
539;4.990583896636963;0;0;0
540;5.000176906585693;0;0;0
541;5.009731769561768;0;0;0
542;5.019329786300659;0;0;0
543;5.028889179229736;0;0;0
544;5.039559841156006;0;0;0
545;5.049147129058838;0;0;0
546;5.0587053298950195;0;0;0
547;5.068264484405518;0;0;0
548;5.077820301055908;0;0;0
549;5.087412357330322;0;0;0
550;5.096967935562134;0;0;0
551;5.1065239906311035;0;0;0
552;5.116085767745972;0;0;0
553;5.125693082809448;0;0;0
554;5.135246753692627;0;0;0
555;5.144800424575806;0;0;0
556;5.154356956481934;0;0;0
557;5.163912057876587;0;0;0
558;5.173510313034058;0;0;0
559;5.183144569396973;0;0;0
560;5.192713737487793;0;0;0
561;5.202272891998291;0;0;0
562;5.211836576461792;0;0;0
563;5.221394300460815;0;0;0
564;5.230955123901367;0;0;0
565;5.240516901016235;0;0;0
566;5.250078439712524;0;0;0
567;5.259638786315918;0;0;0
568;5.269204616546631;0;0;0
569;5.278763055801392;0;0;0
570;5.288370132446289;0;0;0
571;5.297934293746948;0;0;0
572;5.307494640350342;0;0;0
573;5.317057847976685;0;0;0
574;5.326624155044556;0;0;0
575;5.336184978485107;0;0;0
576;5.345800876617432;0;0;0
577;5.3553550243377686;0;0;0
578;5.364911794662476;0;0;0
579;5.374470233917236;0;0;0
580;5.384028196334839;0;0;0
581;5.39363169670105;0;0;0
582;5.403193473815918;0;0;0
583;5.4127538204193115;0;0;0
584;5.422314882278442;0;0;0
585;5.431874752044678;0;0;0
586;5.441424608230591;0;0;0
587;5.450974941253662;0;0;0
588;5.460538148880005;0;0;0
589;5.471023082733154;0;0;0
590;5.480598449707031;0;0;0
591;5.49018669128418;0;0;0
592;5.499743223190308;0;0;0
593;5.509320259094238;0;0;0
594;5.518879175186157;0;0;0
595;5.528435468673706;0;0;0
596;5.537993431091309;0;0;0
597;5.54755163192749;0;0;0
598;5.557152032852173;0;0;0
599;5.566715717315674;0;0;0
600;5.576308727264404;0;0;0
601;5.5858659744262695;0;0;0
602;5.595417022705078;0;0;0
603;5.605006217956543;0;0;0
604;5.614565134048462;0;0;0
605;5.6241254806518555;0;0;0
606;5.633694171905518;0;0;0
607;5.643273591995239;0;0;0
608;5.6528520584106445;0;0;0
609;5.662401437759399;0;0;0
610;5.671947479248047;0;0;0
611;5.6815290451049805;0;0;0
612;5.691091775894165;0;0;0
613;5.70115852355957;0;0;0
614;5.714949369430542;0;0;0
615;5.724515199661255;0;0;0
616;5.734046459197998;0;0;0
617;5.743617057800293;0;0;0
618;5.753143548965454;0;0;0
619;5.762673854827881;0;0;0
620;5.77220892906189;0;0;0
621;5.781732082366943;0;0;0
622;5.791255712509155;0;0;0
623;5.800779581069946;0;0;0
624;5.810361862182617;0;0;0
625;5.819923639297485;0;0;0
626;5.82948637008667;0;0;0
627;5.839050531387329;0;0;0
628;5.848644733428955;0;0;0
629;5.858212471008301;0;0;0
630;5.867768049240112;0;0;0
631;5.877331018447876;0;0;0
632;5.886979341506958;0;0;0
633;5.8965606689453125;0;0;0
634;5.906123161315918;0;0;0
635;5.9157233238220215;0;0;0
636;5.925287246704102;0;0;0
637;5.937335252761841;0;0;0
638;5.946892261505127;0;0;0
639;5.956418037414551;0;0;0
640;5.965956687927246;0;0;0
641;5.975517749786377;0;0;0
642;5.9850733280181885;0;0;0
643;5.99467658996582;0;0;0
644;6.004234790802002;0;0;0
645;6.01379656791687;0;0;0
646;6.023352384567261;0;0;0
647;6.032910585403442;0;0;0
648;6.042513132095337;0;0;0
649;6.052064657211304;0;0;0
650;6.061645746231079;0;0;0
651;6.071204662322998;0;0;0
652;6.080757141113281;0;0;0
653;6.090388536453247;0;0;0
654;6.101071119308472;0;0;0
655;6.110668659210205;0;0;0
656;6.120218515396118;0;0;0
657;6.1297643184661865;0;0;0
658;6.139362573623657;0;0;0
659;6.148919582366943;0;0;0
660;6.1584694385528564;0;0;0
661;6.168025255203247;0;0;0
662;6.177722454071045;0;0;0
663;6.187286853790283;0;0;0
664;6.196881532669067;0;0;0
665;6.206438302993774;0;0;0
666;6.215990304946899;0;0;0
667;6.225541353225708;0;0;0
668;6.235093593597412;0;0;0
669;6.24466609954834;0;0;0
670;6.2542290687561035;0;0;0
671;6.2637810707092285;0;0;0
672;6.273334503173828;0;0;0
673;6.2829718589782715;0;0;0
674;6.292629718780518;0;0;0
675;6.302187919616699;0;0;0
676;6.311731338500977;0;0;0
677;6.321272373199463;0;0;0
678;6.3308258056640625;0;0;0
679;6.340420246124268;0;0;0
680;6.349981307983398;0;0;0
681;6.359545946121216;0;0;0
682;6.369108200073242;0;0;0
683;6.378665208816528;0;0;0
684;6.388221502304077;0;0;0
685;6.398035287857056;0;0;0
686;6.407671689987183;0;0;0
687;6.417325496673584;0;0;0
688;6.426903009414673;0;0;0
689;6.4366371631622314;0;0;0
690;6.446377515792847;0;0;0
691;6.455938339233398;0;0;0
692;6.465503931045532;0;0;0
693;6.475077867507935;0;0;0
694;6.484650373458862;0;0;0
695;6.494606256484985;0;0;0
696;6.504159688949585;0;0;0
697;6.513729810714722;0;0;0
698;6.523267507553101;0;0;0
699;6.532821178436279;0;0;0
700;6.542378664016724;0;0;0
701;6.551934242248535;0;0;0
702;6.561492919921875;0;0;0
703;6.571053981781006;0;0;0
