;Time;Thrust;BEM pressure;N2O pressure;N2OWeigth
0;0.0;2.894;2.928469652916042;7.708463009827396;-15.325619271151295
1;0.01571798324584961;3.0360000000000005;2.9299799518603;7.712438493586977;-15.374295209760637
2;0.030133724212646484;3.032;2.928469652916042;7.712438493586977;-15.3548248343169
3;0.044571638107299805;3.04;2.9299799518603;7.712438493586977;-15.371861412830171
4;0.058969736099243164;3.0330000000000004;2.9299799518603;7.712438493586977;-15.366993818969235
5;0.07339239120483398;3.016;2.9299799518603;7.712438493586977;-15.374295209760637
6;0.08781838417053223;3.0309999999999997;2.928469652916042;7.708463009827396;-15.318317880359894
7;0.10221409797668457;3.0330000000000004;2.928469652916042;7.712438493586977;-15.362126225108302
8;0.11671209335327148;3.027;2.9299799518603;7.712438493586977;-15.369427615899703
9;0.1310718059539795;3.029;2.928469652916042;7.708463009827396;-15.325619271151295
10;0.14550065994262695;3.034;2.9299799518603;7.708463009827396;-15.332920661942698
11;0.15995454788208008;3.043;2.9299799518603;7.712438493586977;-15.376729006691104
12;0.17499732971191406;3.0309999999999997;2.9299799518603;7.712438493586977;-15.364560022038768
13;0.18931913375854492;3.0309999999999997;2.928469652916042;7.712438493586977;-15.349957240455966
14;0.20370197296142578;3.043;2.928469652916042;7.712438493586977;-15.364560022038768
15;0.21806097030639648;3.0300000000000002;2.9299799518603;7.708463009827396;-15.32075167729036
16;0.2323899269104004;3.043;2.926959353971784;7.712438493586977;-15.374295209760637
17;0.2468578815460205;3.0309999999999997;2.9299799518603;7.712438493586977;-15.359692428177834
18;0.26140761375427246;3.0389999999999997;2.928469652916042;7.708463009827396;-15.32075167729036
19;0.275862455368042;3.0380000000000003;2.928469652916042;7.712438493586977;-15.362126225108302
20;0.29035019874572754;3.0309999999999997;2.928469652916042;7.712438493586977;-15.359692428177834
21;0.3048100471496582;3.04;2.928469652916042;7.712438493586977;-15.364560022038768
22;0.31922292709350586;3.0309999999999997;2.9299799518603;7.712438493586977;-15.364560022038768
23;0.3336496353149414;3.029;2.928469652916042;7.712438493586977;-15.366993818969235
24;0.34807562828063965;3.018;2.9299799518603;7.712438493586977;-15.379162803621572
25;0.36251139640808105;3.04;2.928469652916042;7.712438493586977;-15.369427615899703
26;0.3769235610961914;3.0300000000000002;2.9299799518603;7.712438493586977;-15.379162803621572
27;0.39162111282348633;3.0380000000000003;2.9299799518603;7.708463009827396;-15.335354458873162
28;0.4060652256011963;3.042;2.9299799518603;7.712438493586977;-15.374295209760637
29;0.42049288749694824;3.029;2.926959353971784;7.708463009827396;-15.335354458873162
30;0.43497681617736816;3.0410000000000004;2.928469652916042;7.712438493586977;-15.364560022038768
31;0.4493236541748047;3.027;2.9314902508045577;7.712438493586977;-15.366993818969235
32;0.46376657485961914;3.016;2.9299799518603;7.708463009827396;-15.342655849664565
33;0.47812342643737793;3.04;2.9299799518603;7.712438493586977;-15.381596600552038
34;0.49248313903808594;3.029;2.9299799518603;7.712438493586977;-15.381596600552038
35;0.5069429874420166;3.029;2.928469652916042;7.712438493586977;-15.374295209760637
36;0.5213940143585205;3.0280000000000005;2.9299799518603;7.712438493586977;-15.381596600552038
37;0.5357956886291504;3.0280000000000005;2.9299799518603;7.712438493586977;-15.393765585204374
38;0.550283670425415;3.0330000000000004;2.928469652916042;7.708463009827396;-15.332920661942698
39;0.5648436546325684;3.0389999999999997;2.9299799518603;7.712438493586977;-15.379162803621572
40;0.5792155265808105;3.0380000000000003;2.928469652916042;7.708463009827396;-15.33778825580363
41;0.5936691761016846;3.0389999999999997;2.9299799518603;7.712438493586977;-15.393765585204374
42;0.6081290245056152;3.0360000000000005;2.928469652916042;7.708463009827396;-15.345089646595031
43;0.6225738525390625;3.0360000000000005;2.9314902508045577;7.712438493586977;-15.386464194412973
44;0.6370227336883545;3.0250000000000004;2.9299799518603;7.712438493586977;-15.393765585204374
45;0.6514418125152588;3.034;2.9299799518603;7.712438493586977;-15.45461050846605
46;0.6700365543365479;2.9859999999999998;2.9299799518603;7.712438493586977;-15.46434569618792
47;0.6888983249664307;2.9850000000000003;2.9299799518603;7.712438493586977;-15.469213290048852
48;0.7078499794006348;2.997;2.9299799518603;7.712438493586977;-15.466779493118388
49;0.7267448902130127;3.0010000000000003;2.9299799518603;7.708463009827396;-15.418103554509045
50;0.7457005977630615;3.0120000000000005;2.9299799518603;7.716413977346558;-15.418103554509045
51;0.7647554874420166;3.0090000000000003;2.9299799518603;7.708463009827396;-15.41323596064811
52;0.78363037109375;3.0;2.9299799518603;7.712438493586977;-15.476514680840255
53;0.8026182651519775;2.998;2.9299799518603;7.712438493586977;-15.478948477770722
54;0.8216378688812256;2.982;2.928469652916042;7.712438493586977;-15.474080883909789
55;0.8405208587646484;2.9800000000000004;2.9299799518603;7.712438493586977;-15.483816071631656
56;0.8595504760742188;2.9800000000000004;2.9299799518603;7.712438493586977;-15.48138227470119
57;0.8784945011138916;2.9800000000000004;2.928469652916042;7.712438493586977;-15.466779493118388
58;0.8974182605743408;2.9960000000000004;2.928469652916042;7.712438493586977;-15.476514680840255
59;0.9162931442260742;2.995;2.9299799518603;7.716413977346558;-15.430272539161379
60;0.935234785079956;2.997;2.9299799518603;7.712438493586977;-15.478948477770722
61;0.9540867805480957;2.9779999999999998;2.9299799518603;7.712438493586977;-15.483816071631656
62;0.972928524017334;2.9779999999999998;2.9299799518603;7.716413977346558;-15.432706336091847
63;0.9919252395629883;2.997;2.928469652916042;7.708463009827396;-15.435140133022315
64;1.0109241008758545;2.888;2.928469652916042;7.712438493586977;-15.435140133022315
65;1.0753965377807617;2.91;2.928469652916042;7.708463009827396;-15.357258631247367
66;1.0898735523223877;3.0229999999999997;2.9299799518603;7.712438493586977;-15.401066975995775
67;1.1043012142181396;3.019;2.926959353971784;7.700512042308234;-15.40593456985671
68;1.118591070175171;3.0069999999999997;2.928469652916042;7.712438493586977;-15.403500772926243
69;1.1329419612884521;3.019;2.928469652916042;7.704487526067815;-15.403500772926243
70;1.1473398208618164;3.0170000000000003;2.928469652916042;7.704487526067815;-15.401066975995775
71;1.161698579788208;3.0170000000000003;2.928469652916042;7.708463009827396;-15.3548248343169
72;1.1760904788970947;3.0300000000000002;2.928469652916042;7.712438493586977;-15.403500772926243
73;1.1904573440551758;3.018;2.9299799518603;7.708463009827396;-15.369427615899703
74;1.204904317855835;3.0200000000000005;2.926959353971784;7.712438493586977;-15.415669757578577
75;1.2193942070007324;3.0140000000000002;2.928469652916042;7.708463009827396;-15.359692428177834
76;1.233813762664795;3.029;2.928469652916042;7.712438493586977;-15.41323596064811
77;1.2481136322021484;3.021;2.928469652916042;7.708463009827396;-15.359692428177834
78;1.2624235153198242;3.0280000000000005;2.9299799518603;7.712438493586977;-15.418103554509045
79;1.2768044471740723;3.027;2.928469652916042;7.708463009827396;-15.364560022038768
80;1.2911803722381592;3.016;2.9299799518603;7.708463009827396;-15.40593456985671
81;1.3121311664581299;3.0;2.9299799518603;7.708463009827396;-15.379162803621572
82;1.326627254486084;3.0309999999999997;2.9299799518603;7.712438493586977;-15.418103554509045
83;1.341062068939209;3.024;2.9299799518603;7.708463009827396;-15.369427615899703
84;1.355440616607666;3.018;2.928469652916042;7.712438493586977;-15.41323596064811
85;1.3697657585144043;3.0140000000000002;2.928469652916042;7.708463009827396;-15.364560022038768
86;1.3842363357543945;3.0140000000000002;2.9299799518603;7.712438493586977;-15.425404945300446
87;1.3986613750457764;3.0010000000000003;2.928469652916042;7.712438493586977;-15.410802163717644
88;1.4131393432617188;3.01;2.928469652916042;7.712438493586977;-15.420537351439512
89;1.4278790950775146;3.0170000000000003;2.9299799518603;7.708463009827396;-15.371861412830171
90;1.442162036895752;3.0200000000000005;2.928469652916042;7.712438493586977;-15.418103554509045
91;1.4565496444702148;3.024;2.9299799518603;7.708463009827396;-15.374295209760637
92;1.470855474472046;3.021;2.9299799518603;7.712438493586977;-15.425404945300446
93;1.4852445125579834;3.003;2.9299799518603;7.712438493586977;-15.422971148369978
94;1.499601125717163;3.0149999999999997;2.9299799518603;7.704487526067815;-15.422971148369978
95;1.5142173767089844;3.0120000000000005;2.928469652916042;7.712438493586977;-15.41323596064811
96;1.5285582542419434;3.019;2.9299799518603;7.708463009827396;-15.369427615899703
97;1.5428907871246338;3.0149999999999997;2.9299799518603;7.712438493586977;-15.41323596064811
98;1.5573248863220215;3.019;2.9299799518603;7.704487526067815;-15.418103554509045
99;1.571690559387207;3.0250000000000004;2.9299799518603;7.708463009827396;-15.376729006691104
100;1.586146354675293;3.018;2.928469652916042;7.712438493586977;-15.420537351439512
101;1.600541353225708;3.0140000000000002;2.9299799518603;7.708463009827396;-15.369427615899703
102;1.6150131225585938;3.0170000000000003;2.928469652916042;7.708463009827396;-15.371861412830171
103;1.6293840408325195;3.019;2.928469652916042;7.712438493586977;-15.418103554509045
104;1.6438798904418945;3.027;2.926959353971784;7.716413977346558;-15.374295209760637
105;1.6651337146759033;2.982;2.9299799518603;7.712438493586977;-15.440007726883248
106;1.680708408355713;2.9960000000000004;2.9299799518603;7.716413977346558;-15.384030397482505
107;1.6950764656066895;3.016;2.928469652916042;7.712438493586977;-15.432706336091847
108;1.7094624042510986;3.0090000000000003;2.9314902508045577;7.712438493586977;-15.425404945300446
109;1.7239410877227783;2.9990000000000006;2.9299799518603;7.716413977346558;-15.379162803621572
110;1.7383010387420654;3.0220000000000002;2.9299799518603;7.712438493586977;-15.43757392995278
111;1.7526497840881348;3.0090000000000003;2.9314902508045577;7.712438493586977;-15.476514680840255
112;1.7685506343841553;2.99;2.9299799518603;7.708463009827396;-15.449742914605118
113;1.7875444889068604;2.9750000000000005;2.9314902508045577;7.712438493586977;-15.49841885321446
114;1.8063652515411377;2.989;2.928469652916042;7.712438493586977;-15.495985056283992
115;1.825206995010376;2.9990000000000006;2.928469652916042;7.712438493586977;-15.49841885321446
116;1.8441088199615479;2.987;2.928469652916042;7.712438493586977;-15.48868366549259
117;1.862797737121582;2.987;2.928469652916042;7.712438493586977;-15.491117462423057
118;1.8818707466125488;2.9880000000000004;2.9299799518603;7.712438493586977;-15.500852650144925
119;1.9007022380828857;2.987;2.9299799518603;7.712438493586977;-15.503286447075393
120;1.9195880889892578;2.9750000000000005;2.9299799518603;7.712438493586977;-15.503286447075393
121;1.938424825668335;2.9750000000000005;2.928469652916042;7.712438493586977;-15.493551259353524
122;1.9572868347167969;2.9910000000000005;2.9299799518603;7.704487526067815;-15.495985056283992
123;1.9761836528778076;3.0;2.928469652916042;7.712438493586977;-15.495985056283992
124;1.9950385093688965;2.998;2.928469652916042;7.712438493586977;-15.493551259353524
125;2.0140602588653564;2.8840000000000003;2.9299799518603;7.712438493586977;-15.534925807171465
126;2.059051752090454;2.9910000000000005;2.9163872613619786;7.6846101072699105;-15.381596600552038
127;2.076068639755249;3.0200000000000005;2.928469652916042;7.716413977346558;-15.366993818969235
128;2.0904946327209473;3.008;2.928469652916042;7.708463009827396;-15.362126225108302
129;2.1049163341522217;3.0170000000000003;2.9299799518603;7.708463009827396;-15.374295209760637
130;2.119291305541992;3.021;2.928469652916042;7.712438493586977;-15.410802163717644
131;2.1336939334869385;3.0200000000000005;2.928469652916042;7.712438493586977;-15.422971148369978
132;2.14805269241333;3.0170000000000003;2.928469652916042;7.708463009827396;-15.374295209760637
133;2.162440776824951;3.0229999999999997;2.9299799518603;7.716413977346558;-15.381596600552038
134;2.176853656768799;3.0229999999999997;2.9299799518603;7.704487526067815;-15.418103554509045
135;2.1911814212799072;3.0300000000000002;2.928469652916042;7.716413977346558;-15.369427615899703
136;2.2055132389068604;3.0200000000000005;2.9299799518603;7.712438493586977;-15.422971148369978
137;2.2225451469421387;2.995;2.9314902508045577;7.712438493586977;-15.40593456985671
138;2.2369790077209473;3.002;2.9299799518603;7.704487526067815;-15.420537351439512
139;2.251372814178467;3.016;2.9299799518603;7.712438493586977;-15.420537351439512
140;2.265718936920166;3.0149999999999997;2.9299799518603;7.716413977346558;-15.371861412830171
141;2.280090808868408;3.021;2.926959353971784;7.708463009827396;-15.369427615899703
142;2.294471502304077;3.0170000000000003;2.928469652916042;7.700512042308234;-15.40593456985671
143;2.3088133335113525;3.003;2.9299799518603;7.712438493586977;-15.422971148369978
144;2.3231892585754395;3.0149999999999997;2.926959353971784;7.716413977346558;-15.381596600552038
145;2.337779998779297;3.016;2.9299799518603;7.708463009827396;-15.376729006691104
146;2.352043867111206;3.0229999999999997;2.928469652916042;7.716413977346558;-15.369427615899703
147;2.3670217990875244;3.0200000000000005;2.9314902508045577;7.712438493586977;-15.415669757578577
148;2.3813846111297607;3.016;2.9299799518603;7.712438493586977;-15.420537351439512
149;2.395665407180786;3.0170000000000003;2.9299799518603;7.708463009827396;-15.381596600552038
150;2.410041332244873;3.019;2.9299799518603;7.712438493586977;-15.430272539161379
151;2.4244563579559326;3.016;2.928469652916042;7.720389461106139;-15.374295209760637
152;2.438742160797119;3.0200000000000005;2.9299799518603;7.712438493586977;-15.430272539161379
153;2.453028917312622;3.0120000000000005;2.928469652916042;7.712438493586977;-15.415669757578577
154;2.4674007892608643;3.0140000000000002;2.9299799518603;7.708463009827396;-15.381596600552038
155;2.4817395210266113;3.016;2.9299799518603;7.712438493586977;-15.427838742230913
156;2.49607253074646;3.0149999999999997;2.9299799518603;7.712438493586977;-15.435140133022315
157;2.5104894638061523;2.9990000000000006;2.926959353971784;7.708463009827396;-15.386464194412973
158;2.5249361991882324;3.0149999999999997;2.928469652916042;7.708463009827396;-15.374295209760637
159;2.539263963699341;3.0170000000000003;2.926959353971784;7.708463009827396;-15.379162803621572
160;2.5535919666290283;3.026;2.928469652916042;7.704487526067815;-15.420537351439512
161;2.5679898262023926;3.016;2.928469652916042;7.712438493586977;-15.41323596064811
162;2.582298755645752;3.019;2.928469652916042;7.716413977346558;-15.381596600552038
163;2.596714496612549;3.019;2.9299799518603;7.716413977346558;-15.381596600552038
164;2.61106538772583;3.021;2.9299799518603;7.712438493586977;-15.422971148369978
165;2.6254022121429443;3.0140000000000002;2.9299799518603;7.716413977346558;-15.376729006691104
166;2.639708995819092;3.0200000000000005;2.928469652916042;7.716413977346558;-15.422971148369978
167;2.661428689956665;3.01;2.928469652916042;7.716413977346558;-15.379162803621572
168;2.6757657527923584;3.0229999999999997;2.9299799518603;7.712438493586977;-15.430272539161379
169;2.69010853767395;3.011;2.928469652916042;7.712438493586977;-15.427838742230913
170;2.704479455947876;3.016;2.928469652916042;7.712438493586977;-15.427838742230913
171;2.7188053131103516;3.0120000000000005;2.9299799518603;7.716413977346558;-15.386464194412973
172;2.733145236968994;3.011;2.928469652916042;7.712438493586977;-15.427838742230913
173;2.7476298809051514;3.0120000000000005;2.9299799518603;7.712438493586977;-15.43757392995278
174;2.761931896209717;3.0120000000000005;2.9314902508045577;7.712438493586977;-15.493551259353524
175;2.7802786827087402;2.989;2.928469652916042;7.712438493586977;-15.49841885321446
176;2.799182415008545;2.911;2.9299799518603;7.712438493586977;-15.508154040936327
177;2.8237082958221436;2.99;2.928469652916042;7.708463009827396;-15.44730911767465
178;2.8425331115722656;2.9779999999999998;2.9299799518603;7.712438493586977;-15.503286447075393
179;2.861398935317993;2.9750000000000005;2.928469652916042;7.712438493586977;-15.418103554509045
180;2.876401662826538;3.0229999999999997;2.9299799518603;7.712438493586977;-15.430272539161379
181;2.8907437324523926;3.011;2.9299799518603;7.712438493586977;-15.432706336091847
182;2.9051663875579834;3.011;2.928469652916042;7.712438493586977;-15.425404945300446
183;2.919551372528076;3.0010000000000003;2.928469652916042;7.708463009827396;-15.376729006691104
184;2.933955192565918;3.0140000000000002;2.9299799518603;7.712438493586977;-15.425404945300446
185;2.9482100009918213;2.9990000000000006;2.9314902508045577;7.708463009827396;-15.374295209760637
186;2.962512969970703;3.0120000000000005;2.9299799518603;7.708463009827396;-15.381596600552038
187;2.9771456718444824;3.016;2.9299799518603;7.708463009827396;-15.391331788273906
188;2.9915237426757812;3.0250000000000004;2.928469652916042;7.712438493586977;-15.425404945300446
189;3.005845546722412;2.997;2.9299799518603;7.712438493586977;-15.435140133022315
190;3.020247459411621;2.9990000000000006;2.9299799518603;7.712438493586977;-15.430272539161379
191;3.0345911979675293;3.0149999999999997;2.9299799518603;7.708463009827396;-15.38889799134344
192;3.0489020347595215;3.0229999999999997;2.928469652916042;7.712438493586977;-15.418103554509045
193;3.063300848007202;3.019;2.928469652916042;7.716413977346558;-15.384030397482505
194;3.0776989459991455;3.0140000000000002;2.9299799518603;7.708463009827396;-15.386464194412973
195;3.0920145511627197;3.016;2.9299799518603;7.712438493586977;-15.425404945300446
196;3.1063554286956787;2.9990000000000006;2.9299799518603;7.712438493586977;-15.430272539161379
197;3.1206984519958496;3.0120000000000005;2.928469652916042;7.712438493586977;-15.425404945300446
198;3.1353793144226074;2.998;2.928469652916042;7.712438493586977;-15.422971148369978
199;3.149696111679077;3.011;2.9299799518603;7.712438493586977;-15.430272539161379
200;3.164170742034912;3.013;2.928469652916042;7.708463009827396;-15.374295209760637
201;3.1784989833831787;3.0170000000000003;2.9299799518603;7.712438493586977;-15.432706336091847
202;3.1927967071533203;3.016;2.9299799518603;7.712438493586977;-15.435140133022315
203;3.2071335315704346;2.9960000000000004;2.9299799518603;7.716413977346558;-15.381596600552038
204;3.221560478210449;3.0170000000000003;2.9299799518603;7.708463009827396;-15.384030397482505
205;3.235894203186035;3.018;2.9299799518603;7.708463009827396;-15.384030397482505
206;3.2502989768981934;3.0149999999999997;2.9299799518603;7.712438493586977;-15.435140133022315
207;3.2646589279174805;3.0;2.9299799518603;7.712438493586977;-15.432706336091847
208;3.2789878845214844;3.0120000000000005;2.9299799518603;7.716413977346558;-15.384030397482505
209;3.293395519256592;3.013;2.928469652916042;7.716413977346558;-15.386464194412973
210;3.3078794479370117;3.0170000000000003;2.9299799518603;7.708463009827396;-15.386464194412973
211;3.322235345840454;3.0170000000000003;2.928469652916042;7.708463009827396;-15.386464194412973
212;3.336649179458618;3.013;2.9299799518603;7.708463009827396;-15.384030397482505
213;3.351034164428711;3.0170000000000003;2.9299799518603;7.712438493586977;-15.422971148369978
214;3.365372896194458;3.0120000000000005;2.928469652916042;7.712438493586977;-15.418103554509045
215;3.3796987533569336;3.024;2.9299799518603;7.712438493586977;-15.432706336091847
216;3.3941948413848877;3.011;2.9299799518603;7.712438493586977;-15.427838742230913
217;3.4085264205932617;3.0170000000000003;2.928469652916042;7.708463009827396;-15.376729006691104
218;3.422889232635498;3.0140000000000002;2.928469652916042;7.712438493586977;-15.420537351439512
219;3.437300205230713;3.013;2.928469652916042;7.712438493586977;-15.422971148369978
220;3.451646089553833;3.013;2.9299799518603;7.712438493586977;-15.430272539161379
