;Time;Thrust;BEM pressure;N2O pressure
0;0.0;32767;-1;3
1;0.007864713668823242;32767;0;2
2;0.015121221542358398;32767;0;2
3;0.022372007369995117;32767;1;3
4;0.029610872268676758;32767;1;3
5;0.03686952590942383;32767;0;3
6;0.04411911964416504;32767;1;3
7;0.05137300491333008;32767;1;3
8;0.05862879753112793;32767;0;3
9;0.06587553024291992;32767;0;3
10;0.0731191635131836;32767;1;3
11;0.08035397529602051;32767;0;3
12;0.08778738975524902;32767;0;3
13;0.09502625465393066;32767;1;4
14;0.10226750373840332;32767;0;4
15;0.10949850082397461;32767;1;3
16;0.11674714088439941;32767;1;3
17;0.12399673461914062;32767;1;3
18;0.1312551498413086;32767;1;3
19;0.13875508308410645;32767;1;2
20;0.14600110054016113;32767;1;3
21;0.1532454490661621;32767;1;3
22;0.1605064868927002;32767;0;4
23;0.16774320602416992;32767;1;3
24;0.17499303817749023;32767;1;3
25;0.1822495460510254;32767;1;3
26;0.18950700759887695;32767;1;3
27;0.1967639923095703;32767;0;4
28;0.20401573181152344;32767;1;3
29;0.21126985549926758;32767;1;3
30;0.21851801872253418;32767;1;3
31;0.22578668594360352;32767;0;3
32;0.23304295539855957;32767;0;3
33;0.24029541015625;32767;0;3
34;0.24754738807678223;32767;1;3
35;0.2548065185546875;32767;0;3
36;0.2620575428009033;32767;0;3
37;0.26930904388427734;32767;1;4
38;0.27655935287475586;32767;0;2
39;0.2838137149810791;32767;1;3
40;0.2921292781829834;32767;0;3
41;0.2994039058685303;32767;1;4
42;0.3066551685333252;32767;0;3
43;0.3139042854309082;32767;0;3
44;0.32115745544433594;32767;0;3
45;0.32840776443481445;32767;0;4
46;0.3356602191925049;32767;1;3
47;0.3429088592529297;32767;1;3
48;0.3501574993133545;32767;0;3
49;0.3574099540710449;32767;1;3
50;0.36466288566589355;32767;1;3
51;0.3719141483306885;32767;0;4
52;0.37916088104248047;32767;0;3
53;0.38641357421875;32767;1;3
54;0.3936634063720703;32767;1;3
55;0.40091705322265625;32767;1;4
56;0.40816450119018555;32767;1;3
57;0.4154055118560791;32767;0;4
58;0.4226536750793457;32767;0;4
59;0.4299051761627197;32767;0;4
60;0.43715548515319824;32767;1;3
61;0.444415807723999;32767;1;3
62;0.4516739845275879;32767;1;4
63;0.4589228630065918;32767;0;3
64;0.4661717414855957;32767;0;3
65;0.47344040870666504;32767;1;4
66;0.4806954860687256;32767;0;3
67;0.487945556640625;32767;1;3
68;0.49521327018737793;32767;-1;4
69;0.5024645328521729;32767;1;3
70;0.5097131729125977;32767;1;2
71;0.516963005065918;32767;0;3
72;0.524214506149292;32767;0;3
73;0.531466007232666;32767;1;3
74;0.5387182235717773;32767;0;4
75;0.5459671020507812;32767;0;3
76;0.553220272064209;32767;0;4
77;0.5604710578918457;32767;0;2
78;0.5677216053009033;32767;0;3
79;0.5749711990356445;32767;2;4
80;0.5822219848632812;32767;0;4
81;0.5894715785980225;32767;0;2
82;0.5967710018157959;32767;0;4
83;0.6063995361328125;32767;2;3
84;0.616147518157959;32767;2;4
85;0.6259059906005859;32767;1;2
86;0.6356582641601562;32767;1;3
87;0.6454055309295654;32767;1;2
88;0.6551535129547119;32767;1;4
89;0.6649105548858643;32767;1;3
90;0.6746997833251953;32767;1;4
91;0.6844499111175537;32767;1;3
92;0.6942055225372314;32767;1;3
93;0.7040138244628906;32767;1;3
94;0.7137866020202637;32767;0;3
95;0.7235772609710693;32767;0;4
96;0.7333145141601562;32767;2;3
97;0.74306321144104;32767;1;4
98;0.7528703212738037;32767;2;4
99;0.762657642364502;32767;1;5
100;0.7724220752716064;32767;1;4
101;0.7821707725524902;32767;1;4
102;0.7919316291809082;32767;1;4
103;0.8017363548278809;32767;1;4
104;0.8115341663360596;32767;2;4
105;0.8213155269622803;32767;1;4
106;0.8310697078704834;32767;1;4
107;0.8408203125;32767;1;4
108;0.8505711555480957;32767;1;3
109;0.8603134155273438;32767;0;4
110;0.8701181411743164;32767;1;4
111;0.8798859119415283;32767;2;4
112;0.889672040939331;32767;2;4
113;0.8994619846343994;32767;1;3
114;0.9092097282409668;32767;2;4
115;0.9189796447753906;32767;0;4
116;0.9287550449371338;32767;1;4
117;0.9385206699371338;32767;0;3
118;0.9483084678649902;32767;0;4
119;0.9580729007720947;32767;1;3
120;0.9678890705108643;32767;0;3
121;0.9776577949523926;32767;0;3
122;0.9874382019042969;32767;1;4
123;0.9971983432769775;32767;0;3
124;1.0070090293884277;32767;1;4
125;1.0168170928955078;32767;0;3
126;1.0265908241271973;32767;1;4
127;1.0363471508026123;32767;1;4
128;1.0461432933807373;32767;1;4
129;1.0559136867523193;32767;0;4
130;1.0657010078430176;32767;0;3
131;1.0754618644714355;32767;1;3
132;1.0852153301239014;32767;0;3
133;1.094968557357788;32767;0;4
134;1.1048212051391602;32767;1;3
135;1.1146068572998047;32767;1;2
136;1.124356746673584;32767;1;3
137;1.1341052055358887;32767;0;3
138;1.1438546180725098;32767;0;4
139;1.1536390781402588;32767;0;4
140;1.163398265838623;32767;0;3
141;1.1731436252593994;32767;0;2
142;1.1829161643981934;32767;0;3
143;1.1926929950714111;32767;1;4
144;1.202495813369751;32767;1;4
145;1.2122421264648438;32767;1;4
146;1.2219984531402588;32767;0;2
147;1.231743335723877;32767;0;2
148;1.2415335178375244;32767;0;3
149;1.251279354095459;32767;0;2
150;1.2610492706298828;32767;1;4
151;1.27081298828125;32767;2;3
152;1.2806079387664795;32767;1;4
153;1.290367603302002;32767;1;4
154;1.300159215927124;32767;0;5
155;1.311279058456421;32767;2;5
156;1.321054220199585;32767;1;4
157;1.3308196067810059;32767;1;4
158;1.3406178951263428;32767;1;4
159;1.3503684997558594;32767;1;5
160;1.3601632118225098;32767;2;4
161;1.3699402809143066;32767;0;3
162;1.3797097206115723;32767;1;2
163;1.3894922733306885;32767;1;4
164;1.39924955368042;32767;0;5
165;1.4090394973754883;32767;1;4
166;1.4188013076782227;32767;1;4
167;1.4285707473754883;32767;1;4
168;1.4383294582366943;32767;0;4
169;1.4481117725372314;32767;0;4
170;1.457902193069458;32767;0;5
171;1.4676506519317627;32767;1;5
172;1.4773986339569092;32767;1;4
173;1.487149953842163;32767;2;4
174;1.4969465732574463;32767;1;4
175;1.5067131519317627;32767;1;3
176;1.5165040493011475;32767;0;3
177;1.52626633644104;32767;1;4
178;1.5360233783721924;32767;2;4
179;1.5457758903503418;32767;1;4
180;1.5555365085601807;32767;1;4
181;1.5652801990509033;32767;3;5
182;1.5750346183776855;32767;1;3
183;1.5847930908203125;32767;1;3
184;1.5946011543273926;32767;0;3
185;1.6044089794158936;32767;1;4
186;1.6141650676727295;32767;1;4
187;1.6239213943481445;32767;3;4
188;1.6337134838104248;32767;1;3
189;1.6434831619262695;32767;1;4
190;1.6532607078552246;32767;0;4
191;1.6630253791809082;32767;2;3
192;1.672792911529541;32767;2;4
193;1.6825523376464844;32767;1;3
194;1.6922955513000488;32767;1;3
195;1.702056884765625;32767;2;2
196;1.7118611335754395;32767;1;4
197;1.7216336727142334;32767;1;4
198;1.7314341068267822;32767;2;4
199;1.7411918640136719;32767;1;5
200;1.7509615421295166;32767;0;4
201;1.760742425918579;32767;2;4
202;1.7705307006835938;32767;1;2
203;1.78029203414917;32767;1;4
204;1.7900898456573486;32767;0;4
205;1.7998676300048828;32767;0;4
206;1.8096697330474854;32767;1;4
207;1.8194329738616943;32767;1;4
208;1.8291895389556885;32767;2;4
209;1.8389475345611572;32767;2;6
210;1.848703145980835;32767;1;3
211;1.8584585189819336;32767;1;5
212;1.868215799331665;32767;0;4
213;1.8780364990234375;32767;0;3
214;1.8878276348114014;32767;1;4
215;1.8975837230682373;32767;1;3
216;1.907376766204834;32767;1;3
217;1.9171419143676758;32767;1;4
218;1.9269464015960693;32767;2;4
219;1.9367051124572754;32767;2;4
220;1.946453332901001;32767;1;4
221;1.9562084674835205;32767;1;4
222;1.9659626483917236;32767;1;4
223;1.9757165908813477;32767;1;4
224;1.985468864440918;32767;2;4
225;1.9952201843261719;32767;2;4
226;2.0049760341644287;32767;0;3
227;2.0150649547576904;32767;-1;3
228;2.0248196125030518;32767;-1;2
229;2.0350289344787598;32767;-1;2
230;2.0448014736175537;32767;0;3
231;2.0544636249542236;32767;0;2
232;2.064117431640625;32767;-1;2
233;2.0737812519073486;32767;0;3
234;2.083425521850586;32767;0;2
235;2.0930709838867188;32767;0;3
236;2.102724313735962;32767;0;3
237;2.112407922744751;32767;-1;2
238;2.122061014175415;32767;0;3
239;2.131707191467285;32767;0;3
240;2.1413891315460205;32767;0;2
241;2.1510472297668457;32767;1;2
242;2.160701274871826;32767;-1;2
243;2.170353412628174;32767;-1;2
244;2.1800360679626465;32767;0;2
245;2.189687728881836;32767;-1;2
246;2.1993448734283447;32767;0;2
247;2.209030866622925;32767;-1;2
248;2.218686819076538;32767;0;2
249;2.228337526321411;32767;1;3
250;2.237992286682129;32767;0;3
251;2.2476444244384766;32767;0;3
252;2.2572944164276123;32767;0;4
253;2.266942024230957;32767;0;3
254;2.2765939235687256;32767;0;4
255;2.2862446308135986;32767;0;2
256;2.295895576477051;32767;1;3
257;2.3055479526519775;32767;1;2
258;2.315201997756958;32767;0;3
259;2.3248398303985596;32767;0;4
260;2.3345158100128174;32767;0;2
261;2.3441667556762695;32767;0;3
262;2.353816032409668;32767;0;2
263;2.363457441329956;32767;-1;4
264;2.37310528755188;32767;0;4
265;2.3839662075042725;32767;0;3
266;2.3936545848846436;32767;0;3
267;2.403292655944824;32767;0;2
268;2.412928342819214;32767;0;2
269;2.422581911087036;32767;1;2
270;2.4322268962860107;32767;0;3
271;2.4418716430664062;32767;0;2
272;2.4515161514282227;32767;1;3
273;2.4611549377441406;32767;0;3
274;2.470797061920166;32767;0;3
275;2.4804697036743164;32767;0;3
276;2.490111827850342;32767;0;3
277;2.4997544288635254;32767;0;3
278;2.5093955993652344;32767;1;2
279;2.5190651416778564;32767;0;3
280;2.528707981109619;32767;0;3
281;2.5383541584014893;32767;-1;3
282;2.5480000972747803;32767;0;3
283;2.5576515197753906;32767;0;2
284;2.567291736602783;32767;-1;3
285;2.5769429206848145;32767;0;2
286;2.5865886211395264;32767;0;3
287;2.5962398052215576;32767;1;3
288;2.6058835983276367;32767;0;3
289;2.61555552482605;32767;1;2
290;2.6252055168151855;32767;-1;3
291;2.6348519325256348;32767;-1;3
292;2.64453387260437;32767;0;3
293;2.654179811477661;32767;0;2
294;2.6638236045837402;32767;-1;3
295;2.6734778881073;32767;1;2
296;2.6831235885620117;32767;-1;3
297;2.6927714347839355;32767;0;3
298;2.702420711517334;32767;0;4
299;2.7120676040649414;32767;0;4
300;2.7217485904693604;32767;1;2
301;2.7314257621765137;32767;0;3
302;2.7410709857940674;32767;0;3
303;2.7507212162017822;32767;0;2
304;2.7603652477264404;32767;1;1
305;2.7700374126434326;32767;0;3
306;2.779677629470825;32767;1;3
307;2.78932523727417;32767;0;2
308;2.79897141456604;32767;0;2
309;2.8086230754852295;32767;0;3
310;2.8183038234710693;32767;0;2
311;2.8279592990875244;32767;0;3
312;2.8376035690307617;32767;-1;3
313;2.847254753112793;32767;0;2
314;2.8569021224975586;32767;0;3
315;2.8665497303009033;32767;0;3
316;2.8761985301971436;32767;-1;2
317;2.885845184326172;32767;0;3
318;2.8955013751983643;32767;0;3
319;2.905149459838867;32767;0;3
320;2.914795398712158;32767;1;2
321;2.9244742393493652;32767;0;3
322;2.93412446975708;32767;0;3
323;2.9437732696533203;32767;0;2
324;2.9534237384796143;32767;-1;2
325;2.963080406188965;32767;0;2
326;2.972729206085205;32767;0;3
327;2.9823827743530273;32767;2;4
328;2.9920361042022705;32767;0;2
329;3.001689910888672;32767;-1;3
330;3.011385679244995;32767;0;3
331;3.0210695266723633;32767;0;2
332;3.030726194381714;32767;0;2
333;3.0403811931610107;32767;0;3
334;3.050067663192749;32767;0;3
335;3.0597190856933594;32767;0;4
336;3.069382667541504;32767;0;1
337;3.079045057296753;32767;0;3
338;3.088697910308838;32767;0;3
339;3.0983622074127197;32767;0;2
340;3.1080129146575928;32767;0;3
341;3.1176950931549072;32767;0;2
342;3.1274847984313965;32767;0;3
343;3.13714599609375;32767;0;2
344;3.1468372344970703;32767;-1;3
345;3.1565022468566895;32767;-1;3
346;3.1661648750305176;32767;0;3
347;3.175828695297241;32767;1;4
348;3.1854841709136963;32767;1;1
349;3.19514536857605;32767;1;3
350;3.2048075199127197;32767;-1;3
351;3.2144815921783447;32767;-1;3
352;3.2241733074188232;32767;0;2
353;3.233827829360962;32767;0;3
354;3.2434892654418945;32767;0;2
355;3.2531490325927734;32767;0;2
356;3.2628047466278076;32767;0;2
357;3.2724597454071045;32767;1;3
358;3.2821168899536133;32767;0;2
359;3.2917678356170654;32767;0;3
360;3.301457166671753;32767;0;3
361;3.3111207485198975;32767;0;2
362;3.3207690715789795;32767;0;3
363;3.3304567337036133;32767;-1;4
364;3.3401145935058594;32767;0;3
365;3.349771499633789;32767;0;3
366;3.3594326972961426;32767;1;3
367;3.3690898418426514;32767;0;3
368;3.378791093826294;32767;1;3
369;3.38845157623291;32767;0;3
370;3.398111343383789;32767;1;3
371;3.4078032970428467;32767;1;4
372;3.41745662689209;32767;0;2
373;3.4271433353424072;32767;-1;3
374;3.436835289001465;32767;-1;3
375;3.4476478099823;32767;-1;3
376;3.457348585128784;32767;0;2
377;3.4670045375823975;32767;-1;3
378;3.476660966873169;32767;0;2
379;3.4863176345825195;32767;0;1
380;3.495969533920288;32767;0;4
381;3.505624532699585;32767;0;3
382;3.5152761936187744;32767;-1;3
383;3.5249712467193604;32767;0;3
384;3.534661293029785;32767;0;2
385;3.544318437576294;32767;0;4
386;3.553973436355591;32767;0;3
387;3.563666343688965;32767;1;2
388;3.573324680328369;32767;0;2
389;3.58298659324646;32767;-1;2
390;3.592646598815918;32767;0;2
391;3.6023025512695312;32767;1;2
392;3.611961841583252;32767;0;4
393;3.621619462966919;32767;0;3
394;3.6312716007232666;32767;-1;4
395;3.6409311294555664;32767;0;3
396;3.6505866050720215;32767;0;4
397;3.660244941711426;32767;-1;3
398;3.6699070930480957;32767;1;3
399;3.679560661315918;32767;0;3
400;3.6892178058624268;32767;0;3
401;3.698876142501831;32767;0;2
402;3.708538293838501;32767;1;3
403;3.7181971073150635;32767;-1;2
404;3.7278809547424316;32767;1;4
405;3.7375409603118896;32767;0;3
406;3.747201681137085;32767;0;4
407;3.7568862438201904;32767;0;3
408;3.7665483951568604;32767;0;2
409;3.776197910308838;32767;-1;3
410;3.7858595848083496;32767;0;4
411;3.7955167293548584;32767;-1;2
412;3.8051743507385254;32767;0;3
413;3.8148274421691895;32767;0;2
414;3.8245160579681396;32767;0;2
415;3.834172248840332;32767;-1;3
416;3.843836545944214;32767;0;2
417;3.8535194396972656;32767;0;3
418;3.8631792068481445;32767;0;3
419;3.8728597164154053;32767;0;4
420;3.8825185298919678;32767;1;3
421;3.892177104949951;32767;0;3
422;3.9018266201019287;32767;0;3
423;3.911485195159912;32767;0;2
424;3.9211418628692627;32767;-1;3
425;3.930833339691162;32767;0;3
426;3.9404919147491455;32767;-1;3
427;3.9501051902770996;32767;1;3
428;3.9597628116607666;32767;0;2
429;3.9694204330444336;32767;0;3
430;3.9790852069854736;32767;0;2
431;3.9887444972991943;32767;0;3
432;3.998406410217285;32767;0;2
433;4.008063077926636;32767;0;3
434;4.017754077911377;32767;0;2
435;4.027446508407593;32767;0;2
436;4.037104606628418;32767;0;2
437;4.046786785125732;32767;0;3
438;4.0564494132995605;32767;1;3
439;4.0661094188690186;32767;0;3
440;4.075769662857056;32767;0;2
441;4.085436105728149;32767;-1;4
442;4.095099210739136;32767;0;2
443;4.104765892028809;32767;0;3
444;4.114432334899902;32767;1;2
445;4.124096393585205;32767;0;2
446;4.133782148361206;32767;-1;3
447;4.143442869186401;32767;-1;3
448;4.153106451034546;32767;-1;3
449;4.162763833999634;32767;0;3
450;4.172417402267456;32767;0;3
451;4.182070970535278;32767;0;3
452;4.191730260848999;32767;0;2
453;4.201415538787842;32767;0;3
454;4.211078643798828;32767;0;3
455;4.220736742019653;32767;0;4
456;4.230454206466675;32767;1;3
457;4.2401182651519775;32767;0;2
458;4.2497758865356445;32767;0;3
459;4.259431600570679;32767;-1;2
460;4.2690911293029785;32767;0;3
461;4.278756618499756;32767;0;3
462;4.288423299789429;32767;0;3
463;4.298090696334839;32767;0;2
464;4.30778169631958;32767;0;3
465;4.3174357414245605;32767;0;4
466;4.32709264755249;32767;1;2
467;4.336812734603882;32767;-1;3
468;4.346470832824707;32767;0;3
469;4.356133699417114;32767;0;3
470;4.365795135498047;32767;1;3
471;4.375454664230347;32767;0;3
472;4.3851141929626465;32767;0;4
473;4.394771575927734;32767;0;3
474;4.404426097869873;32767;-1;2
475;4.414090871810913;32767;1;3
476;4.423747301101685;32767;0;3
477;4.433434963226318;32767;0;4
478;4.443119525909424;32767;0;3
479;4.452776193618774;32767;0;3
480;4.462435007095337;32767;1;3
481;4.472106218338013;32767;0;3
482;4.48176646232605;32767;0;3
483;4.491460084915161;32767;0;3
484;4.5011231899261475;32767;-1;3
485;4.510784387588501;32767;0;4
486;4.521631717681885;32767;0;4
487;4.531362056732178;32767;0;2
488;4.541020393371582;32767;0;4
489;4.550676345825195;32767;1;2
490;4.560325622558594;32767;0;2
491;4.570011615753174;32767;0;2
492;4.579667806625366;32767;1;3
493;4.589327096939087;32767;0;3
494;4.598981857299805;32767;1;3
495;4.608636379241943;32767;0;3
496;4.618290424346924;32767;0;2
497;4.627943754196167;32767;0;3
498;4.637632131576538;32767;0;2
499;4.647300720214844;32767;1;3
500;4.656954050064087;32767;0;3
501;4.666612148284912;32767;-1;3
502;4.676269292831421;32767;0;4
503;4.685927152633667;32767;1;3
504;4.695577621459961;32767;-1;3
505;4.705231666564941;32767;0;3
506;4.7148826122283936;32767;0;3
507;4.724574565887451;32767;0;3
508;4.734264850616455;32767;0;2
509;4.7439141273498535;32767;0;2
510;4.753600597381592;32767;0;3
511;4.763253927230835;32767;-1;2
512;4.772914886474609;32767;0;2
513;4.7825703620910645;32767;0;3
514;4.792221784591675;32767;0;2
515;4.801876068115234;32767;0;2
516;4.811542749404907;32767;1;4
517;4.821200370788574;32767;-1;3
518;4.830869436264038;32767;0;3
519;4.840560436248779;32767;0;2
520;4.850214719772339;32767;0;3
521;4.8598761558532715;32767;-1;2
522;4.869535207748413;32767;0;3
523;4.879185914993286;32767;-1;3
524;4.888842582702637;32767;0;2
525;4.898498296737671;32767;1;3
526;4.9081621170043945;32767;-1;3
527;4.917854070663452;32767;0;2
528;4.927509069442749;32767;0;3
529;4.937199831008911;32767;0;2
530;4.946885108947754;32767;0;3
531;4.9565465450286865;32767;0;3
532;4.966204404830933;32767;1;2
533;4.975858926773071;32767;0;2
534;4.985516309738159;32767;0;3
535;4.995175123214722;32767;-1;3
536;5.004840135574341;32767;0;2
537;5.014531850814819;32767;0;2
538;5.024189233779907;32767;0;4
539;5.033847808837891;32767;-1;2
540;5.043568134307861;32767;0;3
541;5.053227424621582;32767;0;3
542;5.062895774841309;32767;-1;3
543;5.072563409805298;32767;0;2
544;5.082219123840332;32767;0;3
545;5.091882944107056;32767;0;3
546;5.101545810699463;32767;0;2
547;5.111202001571655;32767;0;3
548;5.120864391326904;32767;0;3
549;5.130528926849365;32767;0;4
550;5.140213966369629;32767;0;3
551;5.149868965148926;32767;0;3
552;5.1595306396484375;32767;-1;3
553;5.169191837310791;32767;2;2
554;5.1788551807403564;32767;0;2
555;5.188513517379761;32767;0;3
556;5.198167562484741;32767;0;3
557;5.207859516143799;32767;1;3
558;5.217514514923096;32767;0;3
559;5.227177143096924;32767;0;2
560;5.236857175827026;32767;0;3
561;5.246513366699219;32767;0;4
562;5.256178140640259;32767;1;2
563;5.265838861465454;32767;0;3
564;5.275507926940918;32767;0;2
565;5.28516411781311;32767;0;3
566;5.294820070266724;32767;-1;3
567;5.304481744766235;32767;1;2
568;5.314141511917114;32767;0;3
569;5.323802471160889;32767;0;3
570;5.333461046218872;32767;0;3
571;5.343128681182861;32767;1;3
572;5.352796792984009;32767;0;2
573;5.362457036972046;32767;0;3
574;5.372113227844238;32767;0;4
575;5.381769418716431;32767;0;4
576;5.3914690017700195;32767;0;4
577;5.401131868362427;32767;-1;3
578;5.410792827606201;32767;0;2
579;5.420476675033569;32767;0;3
580;5.430161476135254;32767;0;2
581;5.439850807189941;32767;0;3
582;5.449520587921143;32767;0;2
583;5.459173202514648;32767;0;2
584;5.4688355922698975;32767;0;4
585;5.4784934520721436;32767;-1;3
586;5.488155364990234;32767;1;3
587;5.497849941253662;32767;0;3
588;5.507538318634033;32767;1;4
589;5.517204284667969;32767;-1;3
590;5.526891231536865;32767;0;3
591;5.536549091339111;32767;0;3
592;5.546204328536987;32767;0;3
593;5.555860996246338;32767;0;3
594;5.565521240234375;32767;-1;3
595;5.575182914733887;32767;0;3
596;5.586037874221802;32767;0;2
597;5.59571099281311;32767;0;3
598;5.605368375778198;32767;-1;3
599;5.615029573440552;32767;1;4
600;5.6246960163116455;32767;0;2
601;5.6343512535095215;32767;-1;3
602;5.644049406051636;32767;1;3
603;5.653706073760986;32767;0;2
604;5.663363456726074;32767;0;3
605;5.673022747039795;32767;1;3
606;5.68268084526062;32767;0;2
607;5.692332029342651;32767;0;2
608;5.701990127563477;32767;0;3
609;5.71164608001709;32767;0;2
610;5.721338987350464;32767;0;3
611;5.730999946594238;32767;-1;3
612;5.7406933307647705;32767;1;3
613;5.750356435775757;32767;0;3
