;Time;Thrust;BEM pressure;N2O pressure;N2OWeigth
0;0.0;20;2;369;-51
1;0.012341022491455078;20;2;368;-51
2;0.02334284782409668;20;2;369;-51
3;0.03419661521911621;20;2;369;-51
4;0.04508233070373535;20;2;369;-52
5;0.0559992790222168;20;2;369;-52
6;0.06691336631774902;20;2;368;-51
7;0.07795405387878418;20;2;368;-51
8;0.08896493911743164;20;2;369;-51
9;0.10008072853088379;20;2;368;-52
10;0.11819052696228027;20;2;369;-52
11;0.1291191577911377;20;2;369;-51
12;0.1399540901184082;20;2;367;-52
13;0.15104198455810547;20;2;369;-52
14;0.16204094886779785;20;2;368;-52
15;0.17292571067810059;20;2;369;-51
16;0.18383264541625977;20;2;369;-52
17;0.19471430778503418;20;2;369;-51
18;0.20561742782592773;20;2;369;-51
19;0.21666622161865234;20;2;369;-51
20;0.22761797904968262;20;2;369;-51
21;0.23852300643920898;20;2;369;-51
22;0.24940276145935059;20;2;368;-51
23;0.2603435516357422;20;2;369;-51
24;0.2712514400482178;20;2;369;-51
25;0.28212642669677734;20;2;369;-51
26;0.2930741310119629;20;2;369;-51
27;0.3039510250091553;20;2;369;-51
28;0.3148307800292969;20;2;369;-51
29;0.32573366165161133;20;2;369;-51
30;0.33692264556884766;20;2;368;-51
31;0.3478872776031494;20;2;369;-52
32;0.35892629623413086;20;2;368;-51
33;0.3698112964630127;20;2;368;-51
34;0.38077807426452637;20;2;368;-51
35;0.3917808532714844;20;2;369;-51
36;0.4026918411254883;20;2;369;-51
37;0.41359567642211914;20;2;369;-51
38;0.424579381942749;20;2;369;-51
39;0.4355733394622803;20;2;368;-52
40;0.44658398628234863;20;2;369;-51
41;0.457489013671875;20;2;369;-52
42;0.46840572357177734;20;2;369;-51
43;0.4793839454650879;20;2;369;-52
44;0.49028873443603516;20;2;369;-51
45;0.5011754035949707;20;2;367;-51
46;0.5120794773101807;20;2;369;-51
47;0.5229601860046387;20;2;369;-51
48;0.5338518619537354;20;2;369;-51
49;0.5447447299957275;20;2;367;-51
50;0.5555984973907471;20;2;368;-51
51;0.5666196346282959;20;2;369;-51
52;0.5775072574615479;20;2;368;-51
53;0.5884552001953125;20;2;368;-51
54;0.5994160175323486;20;2;369;-52
55;0.6103181838989258;19;2;368;-51
56;0.6212177276611328;20;2;369;-51
57;0.6321346759796143;20;2;369;-51
58;0.6430263519287109;20;2;369;-51
59;0.6538853645324707;20;2;369;-51
60;0.6648464202880859;20;2;368;-51
61;0.67582106590271;20;2;369;-51
62;0.6867289543151855;20;2;369;-51
63;0.6976039409637451;20;2;368;-51
64;0.7085597515106201;20;2;368;-51
65;0.7194545269012451;20;2;369;-51
66;0.7304883003234863;20;2;369;-51
67;0.7413501739501953;20;2;368;-52
68;0.7522392272949219;20;2;368;-51
69;0.7632651329040527;20;2;369;-51
70;0.7742259502410889;20;2;367;-51
71;0.7851135730743408;20;2;369;-52
72;0.7959904670715332;20;2;369;-52
73;0.8068094253540039;20;2;369;-51
74;0.81777024269104;20;2;367;-51
75;0.8286571502685547;20;2;369;-52
76;0.8396389484405518;20;2;369;-51
77;0.8506839275360107;20;2;369;-51
78;0.8617227077484131;20;2;368;-51
79;0.8749105930328369;20;2;369;-51
80;0.8859243392944336;20;2;368;-51
81;0.8968212604522705;20;2;369;-52
82;0.9078059196472168;20;2;369;-51
83;0.9187107086181641;20;2;367;-51
84;0.9299118518829346;20;2;369;-51
85;0.9408676624298096;20;2;369;-51
86;0.9518184661865234;20;2;367;-51
87;0.9627463817596436;20;2;369;-51
88;0.973670244216919;20;2;368;-51
89;0.9846169948577881;20;2;368;-51
90;0.9955668449401855;20;2;369;-51
91;1.006556749343872;20;2;367;-51
92;1.05059814453125;20;2;388;-51
93;1.062824010848999;20;27;391;-51
94;1.0737097263336182;20;20;384;-51
95;1.0848186016082764;20;14;381;-52
96;1.0958325862884521;20;13;379;-52
97;1.1067044734954834;20;10;376;-51
98;1.1176002025604248;20;11;376;-52
99;1.1284170150756836;20;8;375;-51
100;1.1394200325012207;20;7;374;-52
101;1.1502900123596191;20;6;372;-51
102;1.1612517833709717;20;6;372;-51
103;1.1721656322479248;20;6;372;-51
104;1.1831183433532715;20;6;372;-51
105;1.1939795017242432;20;7;371;-52
106;1.204937219619751;20;7;373;-52
107;1.2159600257873535;20;8;375;-51
108;1.2268497943878174;20;8;374;-52
109;1.2379355430603027;20;9;376;-51
110;1.2489066123962402;20;10;376;-51
111;1.2598333358764648;20;11;376;-51
112;1.270780086517334;20;13;377;-51
113;1.2817461490631104;20;16;376;-52
114;1.2926478385925293;20;19;376;-51
115;1.303670883178711;20;23;374;-51
116;1.314638614654541;20;30;373;-51
117;1.3255317211151123;20;37;372;-51
118;1.3364906311035156;21;46;372;-52
119;1.3473591804504395;21;58;372;-52
120;1.358273983001709;22;73;367;-52
121;1.3692500591278076;22;88;365;-52
122;1.3801758289337158;23;105;361;-52
123;1.3910436630249023;23;126;360;-52
124;1.4019834995269775;23;147;358;-51
125;1.412865400314331;23;170;356;-51
126;1.4238603115081787;23;193;353;-51
127;1.4348242282867432;23;218;352;-51
128;1.4457530975341797;23;241;350;-51
129;1.4567389488220215;23;266;348;-51
130;1.4676718711853027;23;288;347;-51
131;1.4785966873168945;23;312;346;-51
132;1.4895904064178467;23;335;342;-51
133;1.5006051063537598;24;356;341;-52
134;1.5116071701049805;24;378;339;-51
135;1.5224950313568115;25;396;337;-51
136;1.5335628986358643;25;418;336;-51
137;1.5445988178253174;26;431;333;-51
138;1.5555095672607422;27;455;332;-51
139;1.568840503692627;28;471;331;-51
140;1.5797793865203857;28;488;329;-52
141;1.5907299518585205;28;503;327;-52
142;1.6016700267791748;29;518;326;-52
143;1.6190078258514404;29;539;324;-52
144;1.6299595832824707;30;550;323;-52
145;1.648620367050171;31;564;313;-51
146;1.660325050354004;31;574;313;-51
147;1.6712150573730469;32;586;312;-51
148;1.6820697784423828;32;596;309;-51
149;1.692962884902954;33;602;309;-51
150;1.7038655281066895;33;610;308;-51
151;1.714745283126831;33;620;306;-51
152;1.7256412506103516;33;627;305;-51
153;1.7365832328796387;33;631;303;-51
154;1.7477481365203857;34;639;302;-52
155;1.7586638927459717;34;644;303;-51
156;1.7695698738098145;34;649;302;-52
157;1.7805507183074951;36;653;301;-51
158;1.7915334701538086;36;657;299;-52
159;1.8023483753204346;37;663;298;-52
160;1.8132929801940918;37;666;296;-51
161;1.8243021965026855;37;667;294;-52
162;1.8350837230682373;37;671;298;-52
163;1.8463447093963623;37;673;295;-51
164;1.8572967052459717;37;674;291;-51
165;1.8682513236999512;37;675;295;-52
166;1.8792312145233154;38;677;294;-52
167;1.8910319805145264;38;679;290;-52
168;1.9019560813903809;38;677;291;-51
169;1.91286301612854;38;678;292;-51
170;1.9237055778503418;38;680;288;-52
171;1.9348957538604736;38;680;285;-52
172;1.9459095001220703;38;681;288;-51
173;1.956843376159668;38;680;288;-51
174;1.9678621292114258;39;680;285;-52
175;1.9788429737091064;38;679;285;-51
176;1.9897449016571045;38;680;285;-51
177;2.0007216930389404;38;679;284;-51
178;2.011697769165039;38;676;283;-51
179;2.0226824283599854;38;677;281;-52
180;2.033644199371338;39;676;281;-52
181;2.0446109771728516;39;673;281;-51
182;2.0554728507995605;39;674;279;-52
183;2.066509962081909;39;673;277;-51
184;2.077413558959961;39;671;277;-51
185;2.088299512863159;39;669;280;-51
186;2.099215269088745;39;669;277;-52
187;2.110119104385376;39;668;274;-52
188;2.1210222244262695;39;666;274;-52
189;2.1322500705718994;39;664;274;-51
190;2.1432278156280518;39;664;275;-51
191;2.1541757583618164;39;662;272;-51
192;2.1651735305786133;39;661;271;-52
193;2.176236629486084;39;660;271;-51
194;2.1871962547302246;39;657;270;-51
195;2.1981801986694336;39;657;270;-52
196;2.209134101867676;39;655;270;-51
197;2.2200369834899902;39;654;270;-51
198;2.2309296131134033;39;652;268;-52
199;2.241898536682129;39;651;265;-51
200;2.2528624534606934;39;649;266;-51
201;2.2638134956359863;38;649;265;-51
202;2.2747602462768555;39;647;265;-51
203;2.2857940196990967;39;643;265;-51
204;2.29669189453125;39;643;264;-51
205;2.3074758052825928;39;642;263;-52
206;2.3183884620666504;39;639;262;-52
207;2.329362392425537;38;639;261;-52
208;2.3402652740478516;38;636;262;-51
209;2.351168394088745;38;634;261;-51
210;2.3621110916137695;38;634;260;-51
211;2.373020887374878;39;631;260;-51
212;2.383971691131592;39;630;258;-52
213;2.394888401031494;38;628;257;-51
214;2.4059295654296875;38;627;257;-51
215;2.416821241378784;38;626;257;-52
216;2.427786350250244;38;624;257;-51
217;2.4386749267578125;38;624;255;-51
218;2.449572801589966;38;620;254;-51
219;2.460524797439575;38;618;253;-51
220;2.4714505672454834;38;618;253;-51
221;2.482804536819458;38;617;253;-51
222;2.493713140487671;38;614;251;-51
223;2.5046591758728027;38;613;249;-51
224;2.5156350135803223;38;611;248;-51
225;2.528998851776123;38;609;248;-51
226;2.5399327278137207;38;606;249;-52
227;2.5508196353912354;38;606;248;-51
228;2.561767339706421;38;604;248;-51
229;2.572683334350586;38;602;249;-51
230;2.5836222171783447;38;602;248;-51
231;2.594566822052002;38;602;247;-51
232;2.605543851852417;37;598;246;-51
233;2.616516590118408;38;597;244;-52
234;2.627410411834717;38;595;245;-51
235;2.638315200805664;38;594;243;-51
236;2.6493072509765625;38;594;242;-52
237;2.660219192504883;38;592;243;-51
238;2.67116117477417;38;591;241;-51
239;2.682076930999756;38;587;241;-51
240;2.6929967403411865;38;585;240;-51
241;2.7039124965667725;38;584;240;-51
242;2.714827537536621;38;584;240;-51
243;2.725771188735962;38;582;239;-52
244;2.736926317214966;37;580;238;-51
245;2.747905969619751;37;579;238;-51
246;2.758894920349121;38;577;238;-51
247;2.769862651824951;38;576;237;-51
248;2.7808685302734375;37;574;235;-51
249;2.791870594024658;37;573;235;-51
250;2.8026914596557617;38;570;236;-51
251;2.813629150390625;37;569;234;-51
252;2.8245859146118164;37;568;234;-51
253;2.835533857345581;37;566;234;-51
254;2.846501588821411;37;566;233;-51
255;2.8573906421661377;37;565;233;-51
256;2.8682913780212402;37;564;231;-51
257;2.879382371902466;37;561;232;-51
258;2.890277147293091;37;560;230;-51
259;2.901156187057495;36;560;230;-51
260;2.9120359420776367;37;559;229;-51
261;2.9229485988616943;37;556;229;-51
262;2.9338417053222656;37;552;227;-52
263;2.94474458694458;37;553;229;-51
264;2.9556403160095215;36;552;227;-51
265;2.9666333198547363;36;550;227;-52
266;2.9775550365448;36;551;226;-51
267;2.9884538650512695;37;547;226;-52
268;2.999342679977417;36;545;226;-51
269;3.010237693786621;36;544;225;-51
270;3.021143674850464;36;543;224;-51
271;3.0320303440093994;36;540;224;-51
272;3.042926073074341;36;542;223;-51
273;3.0537660121917725;36;540;223;-52
274;3.0647518634796143;36;538;222;-51
275;3.0756757259368896;36;537;221;-52
276;3.08664870262146;36;535;222;-52
277;3.0975706577301025;36;534;221;-51
278;3.114368200302124;35;533;219;-51
279;3.1254961490631104;35;532;219;-52
280;3.1364948749542236;35;530;218;-51
281;3.147409677505493;36;528;217;-51
282;3.1583175659179688;35;527;217;-51
283;3.169334650039673;36;525;216;-51
284;3.1802563667297363;35;526;217;-52
285;3.191174268722534;35;525;216;-51
286;3.2020721435546875;35;522;214;-51
287;3.2129859924316406;35;521;214;-51
288;3.2239017486572266;35;520;214;-51
289;3.234802722930908;35;518;213;-51
290;3.245678663253784;35;516;215;-51
291;3.256643295288086;34;517;213;-51
292;3.267561197280884;34;515;213;-51
293;3.2784621715545654;35;513;212;-51
294;3.2893660068511963;34;512;212;-51
295;3.300222635269165;34;510;210;-51
296;3.311058759689331;34;510;210;-51
297;3.322000741958618;34;509;210;-51
298;3.333279609680176;34;507;210;-51
299;3.3442842960357666;34;506;209;-51
300;3.3552310466766357;34;504;208;-51
301;3.3663580417633057;34;505;207;-52
302;3.377291679382324;34;503;206;-51
303;3.388270616531372;34;500;206;-52
304;3.399275541305542;34;499;206;-51
305;3.4101803302764893;34;499;205;-52
306;3.421102285385132;34;496;205;-51
307;3.4320712089538574;34;496;205;-51
308;3.442988157272339;33;494;205;-51
309;3.453962802886963;34;494;203;-51
310;3.464963674545288;33;493;203;-52
311;3.4783616065979004;34;492;201;-51
312;3.4893314838409424;33;491;202;-52
313;3.500368118286133;34;490;202;-51
314;3.5112838745117188;33;487;202;-52
315;3.5221829414367676;34;487;202;-52
316;3.5331737995147705;34;486;200;-52
317;3.5440826416015625;33;484;199;-51
318;3.5548994541168213;33;484;200;-51
319;3.5659165382385254;33;483;197;-51
320;3.576841354370117;33;480;197;-51
321;3.587829113006592;33;480;197;-52
322;3.598741054534912;33;478;196;-52
323;3.6096389293670654;33;478;196;-51
324;3.620621681213379;33;477;196;-52
325;3.6316096782684326;33;476;196;-51
326;3.642540216445923;33;474;194;-51
327;3.6534931659698486;32;475;195;-51
328;3.6644699573516846;33;473;195;-51
329;3.675469160079956;33;471;194;-52
330;3.686462640762329;33;470;193;-52
331;3.697382688522339;33;470;192;-51
332;3.7083146572113037;32;468;192;-52
333;3.7192835807800293;32;467;193;-51
334;3.730192184448242;33;465;192;-51
335;3.741119146347046;33;464;190;-51
336;3.7520899772644043;32;464;190;-52
337;3.7629809379577637;32;463;190;-51
338;3.7739126682281494;32;461;190;-51
339;3.7848267555236816;32;461;189;-51
340;3.795757293701172;32;461;189;-52
341;3.8066353797912598;32;458;189;-52
342;3.8175320625305176;32;458;187;-51
343;3.8284060955047607;32;456;188;-51
344;3.839392900466919;32;456;187;-51
345;3.850311756134033;32;454;186;-52
346;3.861227512359619;32;453;186;-51
347;3.872195243835449;32;452;187;-51
348;3.8831913471221924;32;451;184;-51
349;3.894102096557617;32;450;184;-51
350;3.905029058456421;32;449;185;-51
351;3.9159340858459473;32;449;185;-52
352;3.9268927574157715;32;447;184;-51
353;3.938119649887085;32;446;183;-51
354;3.949125289916992;32;446;183;-51
355;3.9600584506988525;32;443;183;-52
356;3.9709973335266113;32;443;183;-51
357;3.981989860534668;32;441;180;-51
358;3.992921829223633;32;440;181;-51
359;4.003852844238281;32;439;180;-51
360;4.014753580093384;32;437;180;-52
361;4.025663614273071;32;437;179;-51
362;4.036615371704102;31;436;181;-51
363;4.04750919342041;32;437;179;-51
364;4.058315992355347;32;434;179;-51
365;4.069303750991821;32;434;178;-51
366;4.080230712890625;32;433;176;-51
367;4.0911338329315186;31;431;176;-52
368;4.102017641067505;31;430;177;-52
369;4.1129162311553955;31;429;177;-52
370;4.123822212219238;31;428;176;-51
371;4.134777069091797;32;428;176;-51
372;4.145699977874756;32;427;176;-51
373;4.156641721725464;31;424;175;-52
374;4.167537689208984;32;424;175;-51
375;4.1784515380859375;32;423;173;-51
376;4.1894004344940186;31;421;173;-51
377;4.2003014087677;31;421;175;-51
378;4.211207866668701;31;420;173;-51
379;4.222121953964233;31;419;175;-52
380;4.232916831970215;31;419;172;-52
381;4.24382472038269;31;418;172;-51
382;4.254730463027954;31;415;172;-51
383;4.265644311904907;31;414;170;-51
384;4.276661157608032;31;414;171;-51
385;4.287779092788696;31;414;170;-51
386;4.298786163330078;31;414;170;-52
387;4.309598684310913;31;412;170;-52
388;4.320605754852295;31;411;169;-51
389;4.331610679626465;31;411;169;-51
390;4.342570543289185;31;410;168;-51
391;4.3535542488098145;31;408;168;-51
392;4.364551305770874;31;407;168;-52
393;4.375560998916626;31;406;168;-51
394;4.386545896530151;31;404;166;-52
395;4.39746880531311;31;404;165;-51
396;4.408449649810791;31;402;165;-51
397;4.421892404556274;31;403;166;-51
398;4.432782411575317;31;401;165;-51
399;4.44369101524353;31;399;165;-51
400;4.454671859741211;31;399;165;-51
401;4.4655749797821045;31;398;163;-51
402;4.476569652557373;31;396;163;-51
403;4.487473487854004;30;397;163;-51
404;4.498368263244629;31;396;164;-51
405;4.509313344955444;30;396;162;-51
406;4.520211935043335;31;394;162;-51
407;4.5311198234558105;30;391;163;-51
408;4.542127847671509;30;391;162;-52
409;4.5529115200042725;30;391;162;-51
410;4.563798666000366;30;390;161;-51
411;4.57478141784668;30;388;161;-52
412;4.5856873989105225;30;388;161;-52
413;4.596630096435547;30;387;159;-52
414;4.607537031173706;30;387;159;-51
415;4.624643802642822;30;385;158;-51
416;4.635565519332886;30;385;158;-51
417;4.646522283554077;30;384;158;-52
418;4.657422304153442;30;383;158;-51
419;4.668313026428223;30;382;158;-51
420;4.6793060302734375;30;380;158;-51
421;4.690230131149292;30;379;155;-52
422;4.701158761978149;30;381;155;-51
423;4.712075471878052;30;379;156;-51
424;4.7229905128479;30;377;156;-52
425;4.7339184284210205;30;375;155;-51
426;4.744830131530762;30;376;155;-52
427;4.755756139755249;30;376;155;-51
428;4.766685962677002;30;375;154;-52
429;4.777612924575806;30;371;153;-51
430;4.78853964805603;30;373;154;-51
431;4.7994225025177;30;372;153;-51
432;4.810297250747681;30;371;153;-51
433;4.821213245391846;29;371;151;-52
434;4.832135200500488;29;370;152;-51
435;4.843018054962158;29;369;152;-51
436;4.853917598724365;29;367;151;-51
437;4.864842891693115;29;366;151;-51
438;4.875791549682617;29;364;151;-51
439;4.8867573738098145;29;366;151;-51
440;4.897664308547974;29;365;149;-51
441;4.908588171005249;29;363;149;-52
442;4.91948390007019;29;363;150;-51
443;4.9304399490356445;29;362;149;-51
444;4.94135856628418;29;361;150;-51
445;4.9521894454956055;29;362;148;-52
446;4.963170289993286;29;360;148;-51
447;4.974117279052734;29;357;146;-51
448;4.985030174255371;29;358;148;-51
449;4.995990991592407;29;358;148;-51
450;5.006880760192871;29;357;146;-52
451;5.017863750457764;29;356;146;-51
452;5.028830528259277;29;355;146;-51
453;5.039740324020386;29;355;145;-51
454;5.050637245178223;29;354;145;-51
455;5.061572074890137;28;353;145;-51
456;5.072486877441406;29;350;145;-52
457;5.083488702774048;29;351;144;-51
458;5.094481706619263;28;351;143;-52
459;5.1054887771606445;28;350;144;-51
460;5.11646842956543;28;349;142;-51
461;5.1274094581604;28;347;144;-51
462;5.138634204864502;28;347;142;-51
463;5.149590015411377;28;348;142;-51
464;5.160574913024902;28;346;141;-52
465;5.171581745147705;28;345;142;-51
466;5.182617664337158;28;342;141;-51
467;5.1935954093933105;28;343;141;-51
468;5.204610347747803;28;344;141;-52
469;5.215571165084839;28;342;141;-51
470;5.226583003997803;28;340;139;-52
471;5.237501859664917;28;340;141;-51
472;5.248449802398682;28;340;139;-52
473;5.259359836578369;28;339;139;-51
474;5.270257472991943;28;338;138;-52
475;5.281205177307129;28;335;139;-51
476;5.292112112045288;28;337;138;-51
477;5.302931308746338;28;337;138;-52
478;5.313820838928223;28;336;138;-51
479;5.324729919433594;28;334;136;-51
480;5.335659742355347;28;334;137;-52
481;5.346646547317505;28;333;135;-51
482;5.3576295375823975;27;331;136;-51
483;5.371030330657959;28;331;135;-51
484;5.382022142410278;28;331;135;-51
485;5.392930030822754;27;330;135;-51
486;5.403817653656006;28;328;135;-51
487;5.414735555648804;28;329;135;-51
488;5.4256556034088135;28;326;135;-52
489;5.436602354049683;27;328;134;-52
490;5.44745945930481;27;326;133;-51
491;5.458348035812378;27;326;132;-51
492;5.46929407119751;27;324;133;-51
493;5.480208873748779;28;324;132;-51
494;5.491117477416992;28;324;132;-51
495;5.5020763874053955;27;322;132;-51
496;5.51300048828125;27;322;132;-51
497;5.5239174365997314;27;321;132;-51
498;5.534818172454834;27;320;131;-51
499;5.5457658767700195;27;320;131;-51
500;5.556648015975952;27;319;131;-51
501;5.567548751831055;27;318;131;-51
502;5.578485488891602;27;317;130;-51
503;5.589392423629761;27;316;129;-51
504;5.60024619102478;27;317;129;-51
505;5.611151218414307;27;316;129;-51
506;5.622064828872681;27;316;129;-51
507;5.632983922958374;27;315;128;-51
508;5.643877744674683;27;314;129;-51
509;5.654767751693726;27;313;128;-51
510;5.665680408477783;27;313;128;-51
511;5.6766602993011475;27;312;128;-51
512;5.687576055526733;27;311;126;-52
513;5.698487043380737;27;311;126;-51
514;5.7093799114227295;27;311;127;-51
515;5.720298767089844;27;310;127;-51
516;5.731192588806152;27;309;127;-52
517;5.742574691772461;27;308;126;-51
518;5.753574371337891;27;306;125;-51
519;5.764573097229004;27;306;125;-52
520;5.775554180145264;27;304;125;-51
521;5.786562919616699;27;305;124;-51
522;5.797456979751587;27;303;125;-51
523;5.808290481567383;27;304;124;-52
524;5.819254636764526;27;303;124;-52
525;5.830122470855713;27;303;124;-51
526;5.841000318527222;27;301;122;-52
527;5.851966142654419;27;300;122;-51
528;5.862875938415527;27;301;122;-51
529;5.873792886734009;27;301;122;-52
530;5.8847815990448;27;300;122;-51
531;5.8957507610321045;27;295;122;-51
532;5.906676530838013;27;298;122;-51
533;5.917645215988159;27;297;121;-51
534;5.928597927093506;27;297;122;-51
535;5.939531087875366;27;295;121;-51
536;5.95052695274353;26;295;121;-51
537;5.961538791656494;27;295;120;-51
538;5.972466707229614;26;295;119;-51
539;5.983499526977539;27;294;119;-51
540;5.994378328323364;26;291;119;-51
