;Time;Thrust;BEM pressure;N2O pressure;N2OWeigth
0;0.0;-1.8499217056200001;-0.04530896832773659;1.3429184139864334;1.9767820725294953
1;0.012341022491455078;-1.8499217056200001;-0.04530896832773659;1.3389429302268525;1.9767820725294953
2;0.02334284782409668;-1.8499217056200001;-0.04530896832773659;1.3429184139864334;1.9767820725294953
3;0.03419661521911621;-1.8499217056200001;-0.04530896832773659;1.3429184139864334;1.9767820725294953
4;0.04508233070373535;-1.8499217056200001;-0.04530896832773659;1.3429184139864334;1.9742967046588624
5;0.0559992790222168;-1.8499217056200001;-0.04530896832773659;1.3429184139864334;1.9742967046588624
6;0.06691336631774902;-1.8499217056200001;-0.04530896832773659;1.3389429302268525;1.9767820725294953
7;0.07795405387878418;-1.8499217056200001;-0.04530896832773659;1.3389429302268525;1.9767820725294953
8;0.08896493911743164;-1.8499217056200001;-0.04530896832773659;1.3429184139864334;1.9767820725294953
9;0.10008072853088379;-1.8499217056200001;-0.04530896832773659;1.3389429302268525;1.9742967046588624
10;0.11819052696228027;-1.8499217056200001;-0.04530896832773659;1.3429184139864334;1.9742967046588624
11;0.1291191577911377;-1.8499217056200001;-0.04530896832773659;1.3429184139864334;1.9767820725294953
12;0.1399540901184082;-1.8499217056200001;-0.04530896832773659;1.3349674464672716;1.9742967046588624
13;0.15104198455810547;-1.8499217056200001;-0.04530896832773659;1.3429184139864334;1.9742967046588624
14;0.16204094886779785;-1.8499217056200001;-0.04530896832773659;1.3389429302268525;1.9742967046588624
15;0.17292571067810059;-1.8499217056200001;-0.04530896832773659;1.3429184139864334;1.9767820725294953
16;0.18383264541625977;-1.8499217056200001;-0.04530896832773659;1.3429184139864334;1.9742967046588624
17;0.19471430778503418;-1.8499217056200001;-0.04530896832773659;1.3429184139864334;1.9767820725294953
18;0.20561742782592773;-1.8499217056200001;-0.04530896832773659;1.3429184139864334;1.9767820725294953
19;0.21666622161865234;-1.8499217056200001;-0.04530896832773659;1.3429184139864334;1.9767820725294953
20;0.22761797904968262;-1.8499217056200001;-0.04530896832773659;1.3429184139864334;1.9767820725294953
21;0.23852300643920898;-1.8499217056200001;-0.04530896832773659;1.3429184139864334;1.9767820725294953
22;0.24940276145935059;-1.8499217056200001;-0.04530896832773659;1.3389429302268525;1.9767820725294953
23;0.2603435516357422;-1.8499217056200001;-0.04530896832773659;1.3429184139864334;1.9767820725294953
24;0.2712514400482178;-1.8499217056200001;-0.04530896832773659;1.3429184139864334;1.9767820725294953
25;0.28212642669677734;-1.8499217056200001;-0.04530896832773659;1.3429184139864334;1.9767820725294953
26;0.2930741310119629;-1.8499217056200001;-0.04530896832773659;1.3429184139864334;1.9767820725294953
27;0.3039510250091553;-1.8499217056200001;-0.04530896832773659;1.3429184139864334;1.9767820725294953
28;0.3148307800292969;-1.8499217056200001;-0.04530896832773659;1.3429184139864334;1.9767820725294953
29;0.32573366165161133;-1.8499217056200001;-0.04530896832773659;1.3429184139864334;1.9767820725294953
30;0.33692264556884766;-1.8499217056200001;-0.04530896832773659;1.3389429302268525;1.9767820725294953
31;0.3478872776031494;-1.8499217056200001;-0.04530896832773659;1.3429184139864334;1.9742967046588624
32;0.35892629623413086;-1.8499217056200001;-0.04530896832773659;1.3389429302268525;1.9767820725294953
33;0.3698112964630127;-1.8499217056200001;-0.04530896832773659;1.3389429302268525;1.9767820725294953
34;0.38077807426452637;-1.8499217056200001;-0.04530896832773659;1.3389429302268525;1.9767820725294953
35;0.3917808532714844;-1.8499217056200001;-0.04530896832773659;1.3429184139864334;1.9767820725294953
36;0.4026918411254883;-1.8499217056200001;-0.04530896832773659;1.3429184139864334;1.9767820725294953
37;0.41359567642211914;-1.8499217056200001;-0.04530896832773659;1.3429184139864334;1.9767820725294953
38;0.424579381942749;-1.8499217056200001;-0.04530896832773659;1.3429184139864334;1.9767820725294953
39;0.4355733394622803;-1.8499217056200001;-0.04530896832773659;1.3389429302268525;1.9742967046588624
40;0.44658398628234863;-1.8499217056200001;-0.04530896832773659;1.3429184139864334;1.9767820725294953
41;0.457489013671875;-1.8499217056200001;-0.04530896832773659;1.3429184139864334;1.9742967046588624
42;0.46840572357177734;-1.8499217056200001;-0.04530896832773659;1.3429184139864334;1.9767820725294953
43;0.4793839454650879;-1.8499217056200001;-0.04530896832773659;1.3429184139864334;1.9742967046588624
44;0.49028873443603516;-1.8499217056200001;-0.04530896832773659;1.3429184139864334;1.9767820725294953
45;0.5011754035949707;-1.8499217056200001;-0.04530896832773659;1.3349674464672716;1.9767820725294953
46;0.5120794773101807;-1.8499217056200001;-0.04530896832773659;1.3429184139864334;1.9767820725294953
47;0.5229601860046387;-1.8499217056200001;-0.04530896832773659;1.3429184139864334;1.9767820725294953
48;0.5338518619537354;-1.8499217056200001;-0.04530896832773659;1.3429184139864334;1.9767820725294953
49;0.5447447299957275;-1.8499217056200001;-0.04530896832773659;1.3349674464672716;1.9767820725294953
50;0.5555984973907471;-1.8499217056200001;-0.04530896832773659;1.3389429302268525;1.9767820725294953
51;0.5666196346282959;-1.8499217056200001;-0.04530896832773659;1.3429184139864334;1.9767820725294953
52;0.5775072574615479;-1.8499217056200001;-0.04530896832773659;1.3389429302268525;1.9767820725294953
53;0.5884552001953125;-1.8499217056200001;-0.04530896832773659;1.3389429302268525;1.9767820725294953
54;0.5994160175323486;-1.8499217056200001;-0.04530896832773659;1.3429184139864334;1.9742967046588624
55;0.6103181838989258;-1.857760356915;-0.04530896832773659;1.3389429302268525;1.9767820725294953
56;0.6212177276611328;-1.8499217056200001;-0.04530896832773659;1.3429184139864334;1.9767820725294953
57;0.6321346759796143;-1.8499217056200001;-0.04530896832773659;1.3429184139864334;1.9767820725294953
58;0.6430263519287109;-1.8499217056200001;-0.04530896832773659;1.3429184139864334;1.9767820725294953
59;0.6538853645324707;-1.8499217056200001;-0.04530896832773659;1.3429184139864334;1.9767820725294953
60;0.6648464202880859;-1.8499217056200001;-0.04530896832773659;1.3389429302268525;1.9767820725294953
61;0.67582106590271;-1.8499217056200001;-0.04530896832773659;1.3429184139864334;1.9767820725294953
62;0.6867289543151855;-1.8499217056200001;-0.04530896832773659;1.3429184139864334;1.9767820725294953
63;0.6976039409637451;-1.8499217056200001;-0.04530896832773659;1.3389429302268525;1.9767820725294953
64;0.7085597515106201;-1.8499217056200001;-0.04530896832773659;1.3389429302268525;1.9767820725294953
65;0.7194545269012451;-1.8499217056200001;-0.04530896832773659;1.3429184139864334;1.9767820725294953
66;0.7304883003234863;-1.8499217056200001;-0.04530896832773659;1.3429184139864334;1.9767820725294953
67;0.7413501739501953;-1.8499217056200001;-0.04530896832773659;1.3389429302268525;1.9742967046588624
68;0.7522392272949219;-1.8499217056200001;-0.04530896832773659;1.3389429302268525;1.9767820725294953
69;0.7632651329040527;-1.8499217056200001;-0.04530896832773659;1.3429184139864334;1.9767820725294953
70;0.7742259502410889;-1.8499217056200001;-0.04530896832773659;1.3349674464672716;1.9767820725294953
71;0.7851135730743408;-1.8499217056200001;-0.04530896832773659;1.3429184139864334;1.9742967046588624
72;0.7959904670715332;-1.8499217056200001;-0.04530896832773659;1.3429184139864334;1.9742967046588624
73;0.8068094253540039;-1.8499217056200001;-0.04530896832773659;1.3429184139864334;1.9767820725294953
74;0.81777024269104;-1.8499217056200001;-0.04530896832773659;1.3349674464672716;1.9767820725294953
75;0.8286571502685547;-1.8499217056200001;-0.04530896832773659;1.3429184139864334;1.9742967046588624
76;0.8396389484405518;-1.8499217056200001;-0.04530896832773659;1.3429184139864334;1.9767820725294953
77;0.8506839275360107;-1.8499217056200001;-0.04530896832773659;1.3429184139864334;1.9767820725294953
78;0.8617227077484131;-1.8499217056200001;-0.04530896832773659;1.3389429302268525;1.9767820725294953
79;0.8749105930328369;-1.8499217056200001;-0.04530896832773659;1.3429184139864334;1.9767820725294953
80;0.8859243392944336;-1.8499217056200001;-0.04530896832773659;1.3389429302268525;1.9767820725294953
81;0.8968212604522705;-1.8499217056200001;-0.04530896832773659;1.3429184139864334;1.9742967046588624
82;0.9078059196472168;-1.8499217056200001;-0.04530896832773659;1.3429184139864334;1.9767820725294953
83;0.9187107086181641;-1.8499217056200001;-0.04530896832773659;1.3349674464672716;1.9767820725294953
84;0.9299118518829346;-1.8499217056200001;-0.04530896832773659;1.3429184139864334;1.9767820725294953
85;0.9408676624298096;-1.8499217056200001;-0.04530896832773659;1.3429184139864334;1.9767820725294953
86;0.9518184661865234;-1.8499217056200001;-0.04530896832773659;1.3349674464672716;1.9767820725294953
87;0.9627463817596436;-1.8499217056200001;-0.04530896832773659;1.3429184139864334;1.9767820725294953
88;0.973670244216919;-1.8499217056200001;-0.04530896832773659;1.3389429302268525;1.9767820725294953
89;0.9846169948577881;-1.8499217056200001;-0.04530896832773659;1.3389429302268525;1.9767820725294953
90;0.9955668449401855;-1.8499217056200001;-0.04530896832773659;1.3429184139864334;1.9767820725294953
91;1.006556749343872;-1.8499217056200001;-0.04530896832773659;1.3349674464672716;1.9767820725294953
92;1.05059814453125;-1.8499217056200001;-0.04530896832773659;1.4184526054184707;1.9767820725294953
93;1.062824010848999;-1.8499217056200001;-0.00755149472128943;1.4303790566972134;1.9767820725294953
94;1.0737097263336182;-1.8499217056200001;-0.018123587331094638;1.4025506703801471;1.9767820725294953
95;1.0848186016082764;-1.8499217056200001;-0.02718538099664196;1.3906242191014044;1.9742967046588624
96;1.0958325862884521;-1.8499217056200001;-0.028695679940899842;1.3826732515822426;1.9742967046588624
97;1.1067044734954834;-1.8499217056200001;-0.0332265767736735;1.3707468003034997;1.9767820725294953
98;1.1176002025604248;-1.8499217056200001;-0.03171627782941562;1.3707468003034997;1.9742967046588624
99;1.1284170150756836;-1.8499217056200001;-0.036247174662189276;1.3667713165439188;1.9767820725294953
100;1.1394200325012207;-1.8499217056200001;-0.03775747360644716;1.362795832784338;1.9742967046588624
101;1.1502900123596191;-1.8499217056200001;-0.03926777255070505;1.3548448652651761;1.9767820725294953
102;1.1612517833709717;-1.8499217056200001;-0.03926777255070505;1.3548448652651761;1.9767820725294953
103;1.1721656322479248;-1.8499217056200001;-0.03926777255070505;1.3548448652651761;1.9767820725294953
104;1.1831183433532715;-1.8499217056200001;-0.03926777255070505;1.3548448652651761;1.9767820725294953
105;1.1939795017242432;-1.8499217056200001;-0.03775747360644716;1.3508693815055952;1.9742967046588624
106;1.204937219619751;-1.8499217056200001;-0.03775747360644716;1.358820349024757;1.9742967046588624
107;1.2159600257873535;-1.8499217056200001;-0.036247174662189276;1.3667713165439188;1.9767820725294953
108;1.2268497943878174;-1.8499217056200001;-0.036247174662189276;1.362795832784338;1.9742967046588624
109;1.2379355430603027;-1.8499217056200001;-0.03473687571793139;1.3707468003034997;1.9767820725294953
110;1.2489066123962402;-1.8499217056200001;-0.0332265767736735;1.3707468003034997;1.9767820725294953
111;1.2598333358764648;-1.8499217056200001;-0.03171627782941562;1.3707468003034997;1.9767820725294953
112;1.270780086517334;-1.8499217056200001;-0.028695679940899842;1.3747222840630808;1.9767820725294953
113;1.2817461490631104;-1.8499217056200001;-0.024164783108126184;1.3707468003034997;1.9742967046588624
114;1.2926478385925293;-1.8499217056200001;-0.019633886275352525;1.3707468003034997;1.9767820725294953
115;1.303670883178711;-1.8499217056200001;-0.01359269049832098;1.362795832784338;1.9767820725294953
116;1.314638614654541;-1.8499217056200001;-0.0030205978885157747;1.358820349024757;1.9767820725294953
117;1.3255317211151123;-1.8499217056200001;0.00755149472128943;1.3548448652651761;1.9767820725294953
118;1.3364906311035156;-1.8420830543250002;0.02114418521961041;1.3548448652651761;1.9742967046588624
119;1.3473591804504395;-1.8420830543250002;0.03926777255070504;1.3548448652651761;1.9742967046588624
120;1.358273983001709;-1.83424440303;0.06192225671457334;1.3349674464672716;1.9742967046588624
121;1.3692500591278076;-1.83424440303;0.08457674087844164;1.3270164789481098;1.9742967046588624
122;1.3801758289337158;-1.826405751735;0.11025182293082572;1.311114543909786;1.9742967046588624
123;1.3910436630249023;-1.826405751735;0.14196810076024133;1.307139060150205;1.9742967046588624
124;1.4019834995269775;-1.826405751735;0.17368437858965693;1.2991880926310433;1.9767820725294953
125;1.412865400314331;-1.826405751735;0.20842125430758832;1.2912371251118815;1.9767820725294953
126;1.4238603115081787;-1.826405751735;0.2431581300255197;1.2793106738331388;1.9767820725294953
127;1.4348242282867432;-1.826405751735;0.2809156036319669;1.275335190073558;1.9767820725294953
128;1.4457530975341797;-1.826405751735;0.31565247934989826;1.267384222554396;1.9767820725294953
129;1.4567389488220215;-1.826405751735;0.3534099529563455;1.259433255035234;1.9767820725294953
130;1.4676718711853027;-1.826405751735;0.38663652973001894;1.2554577712756532;1.9767820725294953
131;1.4785966873168945;-1.826405751735;0.42288370439220824;1.2514822875160723;1.9767820725294953
132;1.4895904064178467;-1.826405751735;0.4576205801101396;1.2355803524777487;1.9767820725294953
133;1.5006051063537598;-1.8185671004400001;0.48933685793955517;1.2316048687181678;1.9742967046588624
134;1.5116071701049805;-1.8185671004400001;0.5225634347132287;1.223653901199006;1.9767820725294953
135;1.5224950313568115;-1.810728449145;0.5497488157098707;1.2157029336798442;1.9767820725294953
136;1.5335628986358643;-1.810728449145;0.5829753924835441;1.2117274499202633;1.9767820725294953
137;1.5445988178253174;-1.80288979785;0.6026092787588967;1.1998009986415203;1.9767820725294953
138;1.5555095672607422;-1.795051146555;0.638856453421086;1.1958255148819394;1.9767820725294953
139;1.568840503692627;-1.7872124952600001;0.6630212365292122;1.1918500311223585;1.9767820725294953
140;1.5797793865203857;-1.7872124952600001;0.6886963185815962;1.1838990636031967;1.9742967046588624
141;1.5907299518585205;-1.7872124952600001;0.7113508027454645;1.175948096084035;1.9742967046588624
142;1.6016700267791748;-1.7793738439650002;0.7340052869093328;1.171972612324454;1.9742967046588624
143;1.6190078258514404;-1.7793738439650002;0.7657215647387484;1.1640216448052922;1.9742967046588624
144;1.6299595832824707;-1.77153519267;0.7823348531255852;1.1600461610457113;1.9742967046588624
145;1.648620367050171;-1.763696541375;0.8034790383451956;1.1202913234499021;1.9767820725294953
146;1.660325050354004;-1.763696541375;0.8185820277877744;1.1202913234499021;1.9767820725294953
147;1.6712150573730469;-1.7558578900800001;0.8367056151188691;1.1163158396903212;1.9767820725294953
148;1.6820697784423828;-1.7558578900800001;0.8518086045614479;1.1043893884115785;1.9767820725294953
149;1.692962884902954;-1.748019238785;0.8608703982269953;1.1043893884115785;1.9767820725294953
150;1.7038655281066895;-1.748019238785;0.8729527897810584;1.1004139046519976;1.9767820725294953
151;1.714745283126831;-1.748019238785;0.8880557792236372;1.0924629371328358;1.9767820725294953
152;1.7256412506103516;-1.748019238785;0.8986278718334424;1.0884874533732547;1.9767820725294953
153;1.7365832328796387;-1.748019238785;0.9046690676104739;1.080536485854093;1.9767820725294953
154;1.7477481365203857;-1.74018058749;0.916751459164537;1.076561002094512;1.9742967046588624
155;1.7586638927459717;-1.74018058749;0.9243029538858265;1.080536485854093;1.9767820725294953
156;1.7695698738098145;-1.74018058749;0.931854448607116;1.076561002094512;1.9742967046588624
157;1.7805507183074951;-1.7245032849000002;0.9378956443841475;1.072585518334931;1.9767820725294953
158;1.7915334701538086;-1.7245032849000002;0.9439368401611791;1.0646345508157693;1.9742967046588624
159;1.8023483753204346;-1.7166646336050002;0.9529986338267264;1.0606590670561884;1.9742967046588624
160;1.8132929801940918;-1.7166646336050002;0.9575295306595;1.0527080995370266;1.9767820725294953
161;1.8243021965026855;-1.7166646336050002;0.9590398296037579;1.0447571320178648;1.9742967046588624
162;1.8350837230682373;-1.7166646336050002;0.9650810253807895;1.0606590670561884;1.9742967046588624
163;1.8463447093963623;-1.7166646336050002;0.9681016232693052;1.0487326157774457;1.9767820725294953
164;1.8572967052459717;-1.7166646336050002;0.9696119222135631;1.0328306807391219;1.9767820725294953
165;1.8682513236999512;-1.7166646336050002;0.971122221157821;1.0487326157774457;1.9742967046588624
166;1.8792312145233154;-1.70882598231;0.9741428190463368;1.0447571320178648;1.9742967046588624
167;1.8910319805145264;-1.70882598231;0.9771634169348524;1.028855196979541;1.9742967046588624
168;1.9019560813903809;-1.70882598231;0.9741428190463368;1.0328306807391219;1.9767820725294953
169;1.91286301612854;-1.70882598231;0.9756531179905947;1.036806164498703;1.9767820725294953
170;1.9237055778503418;-1.70882598231;0.9786737158791103;1.0209042294603792;1.9742967046588624
171;1.9348957538604736;-1.70882598231;0.9786737158791103;1.0089777781816365;1.9742967046588624
172;1.9459095001220703;-1.70882598231;0.9801840148233683;1.0209042294603792;1.9767820725294953
173;1.956843376159668;-1.70882598231;0.9786737158791103;1.0209042294603792;1.9767820725294953
174;1.9678621292114258;-1.700987331015;0.9786737158791103;1.0089777781816365;1.9742967046588624
175;1.9788429737091064;-1.70882598231;0.9771634169348524;1.0089777781816365;1.9767820725294953
176;1.9897449016571045;-1.70882598231;0.9786737158791103;1.0089777781816365;1.9767820725294953
177;2.0007216930389404;-1.70882598231;0.9771634169348524;1.0050022944220556;1.9767820725294953
178;2.011697769165039;-1.70882598231;0.9726325201020789;1.0010268106624747;1.9767820725294953
179;2.0226824283599854;-1.70882598231;0.9741428190463368;0.9930758431433128;1.9742967046588624
180;2.033644199371338;-1.700987331015;0.9726325201020789;0.9930758431433128;1.9742967046588624
181;2.0446109771728516;-1.700987331015;0.9681016232693052;0.9930758431433128;1.9767820725294953
182;2.0554728507995605;-1.700987331015;0.9696119222135631;0.985124875624151;1.9742967046588624
183;2.066509962081909;-1.700987331015;0.9681016232693052;0.9771739081049889;1.9767820725294953
184;2.077413558959961;-1.700987331015;0.9650810253807895;0.9771739081049889;1.9767820725294953
185;2.088299512863159;-1.700987331015;0.9620604274922737;0.9891003593837319;1.9767820725294953
186;2.099215269088745;-1.700987331015;0.9620604274922737;0.9771739081049889;1.9742967046588624
187;2.110119104385376;-1.700987331015;0.9605501285480158;0.9652474568262462;1.9742967046588624
188;2.1210222244262695;-1.700987331015;0.9575295306595;0.9652474568262462;1.9742967046588624
189;2.1322500705718994;-1.700987331015;0.9545089327709841;0.9652474568262462;1.9767820725294953
190;2.1432278156280518;-1.700987331015;0.9545089327709841;0.9692229405858271;1.9767820725294953
191;2.1541757583618164;-1.700987331015;0.9514883348824684;0.9572964893070844;1.9767820725294953
192;2.1651735305786133;-1.700987331015;0.9499780359382106;0.9533210055475035;1.9742967046588624
193;2.176236629486084;-1.700987331015;0.9484677369939527;0.9533210055475035;1.9767820725294953
194;2.1871962547302246;-1.700987331015;0.9439368401611791;0.9493455217879226;1.9767820725294953
195;2.1981801986694336;-1.700987331015;0.9439368401611791;0.9493455217879226;1.9742967046588624
196;2.209134101867676;-1.700987331015;0.9409162422726632;0.9493455217879226;1.9767820725294953
197;2.2200369834899902;-1.700987331015;0.9394059433284053;0.9493455217879226;1.9767820725294953
198;2.2309296131134033;-1.700987331015;0.9363853454398896;0.9413945542687608;1.9742967046588624
199;2.241898536682129;-1.700987331015;0.9348750464956317;0.9294681029900181;1.9767820725294953
200;2.2528624534606934;-1.700987331015;0.931854448607116;0.933443586749599;1.9767820725294953
