;Time;Thrust;BEM pressure;N2O pressure
0;0.0;-701;-1936;21302
1;0.008087873458862305;-701;-1936;21302
2;0.015394210815429688;-701;-1936;21302
3;0.022715330123901367;-701;-1936;21302
4;0.0300137996673584;-701;-1936;21302
5;0.03731036186218262;-701;-1936;21302
6;0.04467344284057617;-701;-1936;21302
7;0.0519866943359375;-701;-1936;21302
8;0.05928540229797363;-701;-1936;21302
9;0.06658029556274414;-701;-1936;21302
10;0.07387685775756836;-701;-1936;21302
11;0.08117341995239258;-701;-1936;21302
12;0.08847212791442871;-701;-1936;21302
13;0.09580278396606445;-701;-1936;21302
14;0.10310721397399902;-701;-1936;21302
15;0.1104133129119873;-701;-1936;21302
16;0.11774420738220215;-701;-1936;21302
17;0.12505078315734863;-701;-1936;21302
18;0.13235163688659668;-701;-1936;21302
19;0.13968157768249512;-701;-1936;21302
20;0.14701509475708008;-701;-1936;21302
21;0.15432000160217285;-701;-1936;21302
22;0.1616213321685791;-701;-1936;21302
23;0.16891741752624512;-701;-1936;21302
24;0.17621064186096191;-701;-1936;21302
25;0.18355464935302734;-701;-1936;21302
26;0.19085454940795898;-701;-1936;21302
27;0.19815587997436523;-701;-1936;21302
28;0.20545649528503418;-701;-1936;21302
29;0.21282029151916504;-701;-1936;21302
30;0.22011947631835938;-701;-1936;21302
31;0.22741913795471191;-701;-1936;21302
32;0.23473048210144043;-701;-1936;21302
33;0.24202632904052734;-701;-1936;21302
34;0.24933671951293945;-701;-1936;21302
35;0.25664210319519043;-701;-1936;21302
36;0.26395344734191895;-701;-1936;21302
37;0.2712533473968506;-701;-1936;21302
38;0.2785525321960449;-701;-1936;21302
39;0.28584837913513184;-701;-1936;21302
40;0.29315710067749023;-701;-1936;21302
41;0.3004617691040039;-701;-1936;21302
42;0.3077583312988281;-701;-1936;21302
43;0.31505489349365234;-701;-1936;21302
44;0.3227355480194092;-701;-1936;21302
45;0.33005690574645996;-701;-1936;21302
46;0.33740925788879395;-701;-1936;21302
47;0.34471821784973145;-701;-1936;21302
48;0.3520209789276123;-701;-1936;21302
49;0.35932040214538574;-701;-1936;21302
50;0.3666410446166992;-701;-1936;21302
51;0.3739440441131592;-701;-1936;21302
52;0.3812439441680908;-701;-1936;21302
53;0.38855457305908203;-701;-1936;21302
54;0.39585375785827637;-701;-1936;21302
55;0.4031503200531006;-701;-1936;21302
56;0.410449743270874;-701;-1936;21302
57;0.41774773597717285;-701;-1936;21302
58;0.4250514507293701;-701;-1936;21302
59;0.43236398696899414;-701;-1936;21302
60;0.439664363861084;-701;-1936;21302
61;0.44696664810180664;-701;-1936;21302
62;0.4542865753173828;-701;-1936;21302
63;0.46159791946411133;-701;-1936;21302
64;0.46889233589172363;-701;-1936;21302
65;0.47618746757507324;-701;-1936;21302
66;0.4834859371185303;-701;-1936;21302
67;0.4907832145690918;-701;-1936;21302
68;0.49808168411254883;-701;-1936;21302
69;0.5053784847259521;-701;-1936;21302
70;0.5126900672912598;-701;-1936;21302
71;0.5199875831604004;-701;-1936;21302
72;0.5272843837738037;-701;-1936;21302
73;0.5346474647521973;-701;-1936;21302
74;0.5419456958770752;-701;-1936;21302
75;0.5492446422576904;-701;-1936;21302
76;0.5565400123596191;-701;-1936;21302
77;0.5638377666473389;-701;-1936;21302
78;0.5711503028869629;-701;-1936;21302
79;0.578449010848999;-701;-1936;21302
80;0.5857586860656738;-701;-1936;21302
81;0.5930547714233398;-701;-1936;21302
82;0.6004128456115723;-701;-1936;21302
83;0.6077113151550293;-701;-1936;21302
84;0.6150069236755371;-701;-1936;21302
85;0.6223061084747314;-701;-1936;21302
86;0.6296133995056152;-701;-1936;21302
87;0.6369564533233643;-701;-1936;21302
88;0.6442816257476807;-701;-1936;21302
89;0.651583194732666;-701;-1936;21302
90;0.658898115158081;-701;-1936;21302
91;0.6661965847015381;-701;-1936;21302
92;0.6736080646514893;-701;-1936;21302
93;0.6815464496612549;-701;-1936;21302
94;0.6895277500152588;-701;-1936;21302
95;0.6975111961364746;-701;-1936;21302
96;0.7054972648620605;-701;-1936;21302
97;0.7134900093078613;-701;-1936;21302
98;0.7214682102203369;-701;-1936;21302
99;0.7295284271240234;-701;-1936;21302
100;0.7375173568725586;-701;-1936;21302
101;0.7454955577850342;-701;-1936;21302
102;0.7534787654876709;-701;-1936;21302
103;0.7626714706420898;-701;-1936;21302
104;0.7707240581512451;-701;-1936;21302
105;0.7787559032440186;-701;-1936;21302
106;0.7867398262023926;-701;-1936;21302
107;0.7947220802307129;-701;-1936;21302
108;0.8027610778808594;-701;-1936;21302
109;0.8108012676239014;-701;-1936;21302
110;0.818779706954956;-701;-1936;21302
111;0.8267552852630615;-701;-1936;21302
112;0.8347933292388916;-701;-1936;21302
113;0.8427755832672119;-701;-1936;21302
114;0.8507678508758545;-701;-1936;21302
115;0.8587470054626465;-701;-1936;21302
116;0.8667244911193848;-701;-1936;21302
117;0.8747498989105225;-701;-1936;21302
118;0.882742166519165;-701;-1936;21302
119;0.8907909393310547;-701;-1936;21302
120;0.8987753391265869;-701;-1936;21302
121;0.9067521095275879;-701;-1936;21302
122;0.9148027896881104;-701;-1936;21302
123;0.922781229019165;-701;-1936;21302
124;0.9307587146759033;-701;-1936;21302
125;0.9387452602386475;-701;-1936;21302
126;0.9467363357543945;-701;-1936;21302
127;0.9547209739685059;-701;-1936;21302
128;0.9627618789672852;-701;-1936;21302
129;0.9707942008972168;-701;-1936;21302
130;0.9788169860839844;-701;-1936;21302
131;0.9867959022521973;-701;-1936;21302
132;0.9947798252105713;-701;-1936;21302
133;1.0027692317962646;-701;-1936;21302
134;1.010972499847412;-701;-1936;21302
135;1.0189597606658936;-701;-1936;21302
136;1.0269396305084229;-701;-1936;21302
137;1.034919023513794;-701;-1936;21302
138;1.0428991317749023;-701;-1936;21302
139;1.050889015197754;-701;-1936;21302
140;1.0588631629943848;-701;-1936;21302
141;1.0669832229614258;-701;-1936;21302
142;1.0749659538269043;-701;-1936;21302
143;1.0829837322235107;-701;-1936;21302
144;1.0909621715545654;-701;-1936;21302
145;1.0989525318145752;-701;-1936;21302
146;1.1069293022155762;-701;-1936;21302
147;1.1149098873138428;-701;-1936;21302
148;1.1228947639465332;-701;-1936;21302
149;1.1308720111846924;-701;-1936;21302
150;1.138885498046875;-701;-1936;21302
151;1.1469154357910156;-701;-1936;21302
152;1.1549453735351562;-701;-1936;21302
153;1.162935733795166;-701;-1936;21302
154;1.170921802520752;-701;-1936;21302
155;1.1789770126342773;-701;-1936;21302
156;1.1870484352111816;-701;-1936;21302
157;1.1950156688690186;-701;-1936;21302
158;1.2030091285705566;-701;-1936;21302
159;1.2109873294830322;-701;-1936;21302
160;1.2189524173736572;-701;-1936;21302
161;1.2269353866577148;-701;-1936;21302
162;1.234917402267456;-701;-1936;21302
163;1.2428982257843018;-701;-1936;21302
164;1.250903606414795;-701;-1936;21302
165;1.258894443511963;-701;-1936;21302
166;1.2668824195861816;-701;-1936;21302
167;1.2748777866363525;-701;-1936;21302
168;1.282911777496338;-701;-1936;21302
169;1.290898323059082;-701;-1936;21302
170;1.298889398574829;-701;-1936;21302
171;1.3068747520446777;-701;-1936;21302
172;1.3148658275604248;-701;-1936;21302
173;1.3228578567504883;-701;-1936;21302
174;1.330850601196289;-701;-1936;21302
175;1.3388371467590332;-701;-1936;21302
176;1.3468265533447266;-701;-1936;21302
177;1.354818344116211;-701;-1936;21302
178;1.3628125190734863;-701;-1936;21302
179;1.3708076477050781;-701;-1936;21302
180;1.378788709640503;-701;-1936;21302
181;1.3868114948272705;-701;-1936;21302
182;1.394819974899292;-701;-1936;21302
183;1.4028160572052002;-701;-1936;21302
184;1.410811424255371;-701;-1936;21302
185;1.4187989234924316;-701;-1936;21302
186;1.4267830848693848;-701;-1936;21302
187;1.4348499774932861;-701;-1936;21302
188;1.4428637027740479;-701;-1936;21302
189;1.4508638381958008;-701;-1936;21302
190;1.458867073059082;-701;-1936;21302
191;1.4668540954589844;-701;-1936;21302
192;1.4749112129211426;-701;-1936;21302
193;1.482943058013916;-701;-1936;21302
194;1.490936040878296;-701;-1936;21302
195;1.498948574066162;-701;-1936;21302
196;1.5069353580474854;-701;-1936;21302
197;1.5149204730987549;-701;-1936;21302
198;1.5229089260101318;-701;-1936;21302
199;1.5308983325958252;-701;-1936;21302
200;1.5388829708099365;-701;-1936;21302
201;1.5468780994415283;-701;-1936;21302
202;1.5548732280731201;-701;-1936;21302
203;1.5628657341003418;-701;-1936;21302
204;1.570857286453247;-701;-1936;21302
205;1.5788805484771729;-701;-1936;21302
206;1.5869097709655762;-701;-1936;21302
207;1.5949034690856934;-701;-1936;21302
208;1.6028919219970703;-701;-1936;21302
209;1.6108970642089844;-701;-1936;21302
210;1.6189091205596924;-701;-1936;21302
211;1.6268556118011475;-701;-1936;21302
212;1.6348536014556885;-701;-1936;21302
213;1.6440036296844482;-701;-1936;21302
214;1.6520061492919922;-701;-1936;21302
215;1.6600730419158936;-701;-1936;21302
216;1.6681151390075684;-701;-1936;21302
217;1.676149606704712;-701;-1936;21302
218;1.6841356754302979;-701;-1936;21302
219;1.6921730041503906;-701;-1936;21302
220;1.7001643180847168;-701;-1936;21302
221;1.70815110206604;-701;-1936;21302
222;1.7161295413970947;-701;-1936;21302
223;1.7241170406341553;-701;-1936;21302
224;1.7321665287017822;-701;-1936;21302
225;1.74015212059021;-701;-1936;21302
226;1.7481412887573242;-701;-1936;21302
227;1.75612211227417;-701;-1936;21302
228;1.764108419418335;-701;-1936;21302
229;1.772153377532959;-701;-1936;21302
230;1.7801334857940674;-701;-1936;21302
231;1.7881643772125244;-701;-1936;21302
232;1.7961409091949463;-701;-1936;21302
233;1.8041300773620605;-701;-1936;21302
234;1.8121795654296875;-701;-1936;21302
235;1.8203752040863037;-701;-1936;21302
236;1.8287017345428467;-701;-1936;21302
237;1.8366920948028564;-701;-1936;21302
238;1.8446786403656006;-701;-1936;21302
239;1.8528039455413818;-701;-1936;21302
240;1.860792875289917;-701;-1936;21302
241;1.8687801361083984;-701;-1936;21302
242;1.876758098602295;-701;-1936;21302
243;1.8847987651824951;-701;-1936;21302
244;1.8927831649780273;-701;-1936;21302
245;1.900773286819458;-701;-1936;21302
246;1.9087622165679932;-701;-1936;21302
247;1.9167494773864746;-701;-1936;21302
248;1.924743890762329;-701;-1936;21302
249;1.9327404499053955;-701;-1936;21302
250;1.9407894611358643;-701;-1936;21302
251;1.9487757682800293;-701;-1936;21302
252;1.956761121749878;-701;-1936;21302
253;1.964806318283081;-701;-1936;21302
254;1.97279691696167;-701;-1936;21302
255;1.980783224105835;-701;-1936;21302
256;1.9888050556182861;-701;-1936;21302
257;1.9967904090881348;-701;-1936;21302
258;2.0047848224639893;-701;-1936;21302
259;2.012775421142578;-701;-1936;21302
260;2.020770788192749;-701;-1936;21302
261;2.0287554264068604;-701;-1936;21302
262;2.03674054145813;-701;-1936;21302
263;2.044728994369507;-701;-1936;21302
264;2.0527284145355225;-701;-1936;21302
265;2.060791492462158;-701;-1936;21302
266;2.0687777996063232;-701;-1936;21302
267;2.076761484146118;-701;-1936;21302
268;2.084840774536133;-701;-1936;21302
269;2.092888832092285;-701;-1936;21302
270;2.100888967514038;-701;-1936;21302
271;2.108875036239624;-701;-1936;21302
272;2.1168556213378906;-701;-1936;21302
273;2.124847412109375;-701;-1936;21302
274;2.1328351497650146;-701;-1936;21302
275;2.140920400619507;-701;-1936;21302
276;2.1489245891571045;-701;-1936;21302
277;2.156911849975586;-701;-1936;21302
278;2.164900302886963;-701;-1936;21302
279;2.172887086868286;-701;-1936;21302
280;2.1809005737304688;-701;-1936;21302
281;2.1889519691467285;-701;-1936;21302
282;2.1969449520111084;-701;-1936;21302
283;2.2049450874328613;-701;-1936;21302
284;2.212932586669922;-701;-1936;21302
285;2.2209177017211914;-701;-1936;21302
286;2.2289044857025146;-701;-1936;21302
287;2.2368879318237305;-701;-1936;21302
288;2.244875907897949;-701;-1936;21302
289;2.2528610229492188;-701;-1936;21302
290;2.260854959487915;-701;-1936;21302
291;2.2688422203063965;-701;-1936;21302
292;2.2768232822418213;-701;-1936;21302
293;2.2848119735717773;-701;-1936;21302
294;2.292844772338867;-701;-1936;21302
295;2.3008382320404053;-701;-1936;21302
296;2.3088204860687256;-701;-1936;21302
297;2.3167989253997803;-701;-1936;21302
298;2.3247902393341064;-701;-1936;21302
299;2.332779884338379;-701;-1936;21302
300;2.3407723903656006;-701;-1936;21302
301;2.3487606048583984;-701;-1936;21302
302;2.3567466735839844;-701;-1936;21302
303;2.3647425174713135;-701;-1936;21302
304;2.373236656188965;-701;-1936;21302
305;2.3812363147735596;-701;-1936;21302
306;2.3892662525177;-701;-1936;21302
307;2.397259473800659;-701;-1936;21302
308;2.4053287506103516;-701;-1936;21302
309;2.4133822917938232;-701;-1936;21302
310;2.4213714599609375;-701;-1936;21302
311;2.4293909072875977;-701;-1936;21302
312;2.4374399185180664;-701;-1936;21302
313;2.4454286098480225;-701;-1936;21302
314;2.4534215927124023;-701;-1936;21302
315;2.4614434242248535;-701;-1936;21302
316;2.469428300857544;-701;-1936;21302
317;2.477419137954712;-701;-1936;21302
318;2.4854042530059814;-701;-1936;21302
319;2.4934933185577393;-701;-1936;21302
320;2.5014922618865967;-701;-1936;21302
321;2.5094897747039795;-701;-1936;21302
322;2.5174806118011475;-701;-1936;21302
323;2.526560068130493;-701;-1936;21302
324;2.5345652103424072;-701;-1936;21302
325;2.5426392555236816;-701;-1936;21302
326;2.5506887435913086;-701;-1936;21302
327;2.558668375015259;-701;-1936;21302
328;2.566642999649048;-701;-1936;21302
329;2.574625253677368;-701;-1936;21302
330;2.5826611518859863;-701;-1936;21302
331;2.5907444953918457;-701;-1936;21302
332;2.5987401008605957;-701;-1936;21302
333;2.606724500656128;-701;-1936;21302
334;2.614708185195923;-701;-1936;21302
335;2.622753381729126;-701;-1936;21302
336;2.6307880878448486;-701;-1936;21302
337;2.638782024383545;-701;-1936;21302
338;2.6467738151550293;-701;-1936;21302
339;2.654829978942871;-701;-1936;21302
340;2.662813901901245;-701;-1936;21302
341;2.6707863807678223;-701;-1936;21302
342;2.6787846088409424;-701;-1936;21302
343;2.686767578125;-701;-1936;21302
344;2.694870948791504;-701;-1936;21302
345;2.7028634548187256;-701;-1936;21302
346;2.7108500003814697;-701;-1936;21302
347;2.718829870223999;-701;-1936;21302
348;2.726810932159424;-701;-1936;21302
349;2.7347965240478516;-701;-1936;21302
350;2.7427818775177;-701;-1936;21302
351;2.750779867172241;-701;-1936;21302
352;2.758765935897827;-701;-1936;21302
353;2.7667479515075684;-701;-1936;21302
354;2.7747550010681152;-701;-1936;21302
355;2.7827377319335938;-701;-1936;21302
356;2.790816307067871;-701;-1936;21302
357;2.79880952835083;-701;-1936;21302
358;2.8068013191223145;-701;-1936;21302
359;2.8147902488708496;-701;-1936;21302
360;2.822767972946167;-701;-1936;21302
361;2.8308160305023193;-701;-1936;21302
362;2.8388028144836426;-701;-1936;21302
363;2.8467824459075928;-701;-1936;21302
364;2.854830741882324;-701;-1936;21302
365;2.8628196716308594;-701;-1936;21302
366;2.8708012104034424;-701;-1936;21302
367;2.8787879943847656;-701;-1936;21302
368;2.886765956878662;-701;-1936;21302
369;2.89485502243042;-701;-1936;21302
370;2.902843475341797;-701;-1936;21302
371;2.910830020904541;-701;-1936;21302
372;2.918811798095703;-701;-1936;21302
373;2.926797866821289;-701;-1936;21302
374;2.9347856044769287;-701;-1936;21302
375;2.942775011062622;-701;-1936;21302
376;2.9508185386657715;-701;-1936;21302
377;2.958799362182617;-701;-1936;21302
378;2.9667787551879883;-701;-1936;21302
379;2.9748196601867676;-701;-1936;21302
380;2.982797861099243;-701;-1936;21302
381;2.990783452987671;-701;-1936;21302
382;2.998805284500122;-701;-1936;21302
383;3.00679087638855;-701;-1936;21302
384;3.0147788524627686;-701;-1936;21302
385;3.0227644443511963;-701;-1936;21302
386;3.030825614929199;-701;-1936;21302
387;3.0388071537017822;-701;-1936;21302
388;3.0467872619628906;-701;-1936;21302
389;3.0548300743103027;-701;-1936;21302
390;3.062810182571411;-701;-1936;21302
391;3.0707926750183105;-701;-1936;21302
392;3.0787770748138428;-701;-1936;21302
393;3.086760997772217;-701;-1936;21302
394;3.0948522090911865;-701;-1936;21302
395;3.102851390838623;-701;-1936;21302
396;3.1108384132385254;-701;-1936;21302
397;3.1188230514526367;-701;-1936;21302
398;3.1268012523651123;-701;-1936;21302
399;3.1347827911376953;-701;-1936;21302
400;3.1428475379943848;-701;-1936;21302
401;3.150841236114502;-701;-1936;21302
402;3.158834934234619;-701;-1936;21302
403;3.166813373565674;-701;-1936;21302
404;3.174802541732788;-701;-1936;21302
405;3.182826280593872;-701;-1936;21302
406;3.1908318996429443;-701;-1936;21302
407;3.198817491531372;-701;-1936;21302
408;3.2068121433258057;-701;-1936;21302
409;3.2148022651672363;-701;-1936;21302
410;3.2227842807769775;-701;-1936;21302
411;3.2307937145233154;-701;-1936;21302
412;3.2387797832489014;-701;-1936;21302
413;3.246767520904541;-701;-1936;21302
414;3.2548515796661377;-701;-1936;21302
415;3.262863874435425;-701;-1936;21302
416;3.2708513736724854;-701;-1936;21302
417;3.278837203979492;-701;-1936;21302
418;3.286818742752075;-701;-1936;21302
419;3.2948410511016846;-701;-1936;21302
420;3.302838087081909;-701;-1936;21302
421;3.310826539993286;-701;-1936;21302
422;3.31880784034729;-701;-1936;21302
423;3.3272864818573;-701;-1936;21302
424;3.335392713546753;-701;-1936;21302
425;3.3434696197509766;-701;-1936;21302
426;3.351468086242676;-701;-1936;21302
427;3.3595099449157715;-701;-1936;21302
428;3.367499828338623;-701;-1936;21302
429;3.3754827976226807;-701;-1936;21302
430;3.3834824562072754;-701;-1936;21302
431;3.391467809677124;-701;-1936;21302
432;3.399506092071533;-701;-1936;21302
433;3.407492160797119;-701;-1936;21302
434;3.416623592376709;-701;-1936;21302
435;3.424612283706665;-701;-1936;21302
436;3.432692050933838;-701;-1936;21302
437;3.4407424926757812;-701;-1936;21140
438;3.448727607727051;-701;-1936;21302
439;3.4567108154296875;-701;-1936;21302
440;3.4647083282470703;-701;-1936;21302
441;3.472761631011963;-701;-1936;21302
442;3.4808008670806885;-701;-1936;21302
443;3.4887852668762207;-701;-1936;21302
444;3.49676513671875;-701;-1936;21302
445;3.504808187484741;-701;-1936;21302
446;3.5127923488616943;-701;-1936;21302
447;3.520777940750122;-701;-1936;21302
448;3.528766632080078;-701;-1936;21302
449;3.5367536544799805;-701;-1936;21302
450;3.5447981357574463;-701;-1936;21302
451;3.5528156757354736;-701;-1936;21302
452;3.560802698135376;-701;-1936;21302
453;3.5687832832336426;-701;-1936;21302
454;3.5767641067504883;-701;-1936;21302
455;3.5848147869110107;-701;-1936;21302
456;3.5927951335906982;-701;-1936;21302
457;3.6008188724517822;-701;-1936;21302
458;3.6088027954101562;-701;-1936;21302
459;3.6167829036712646;-701;-1936;21302
460;3.6248393058776855;-701;-1936;21302
461;3.632817506790161;-701;-1936;21302
462;3.6408236026763916;-701;-1936;21302
463;3.6488139629364014;-701;-1936;21302
464;3.6568098068237305;-701;-1936;21302
465;3.664792537689209;-701;-1936;21302
466;3.672769784927368;-701;-1936;21302
467;3.6808958053588867;-701;-1936;21302
468;3.68888258934021;-701;-1936;21302
469;3.6968610286712646;-701;-1936;21302
470;3.7049062252044678;-701;-1936;21302
471;3.712890148162842;-701;-1936;21302
472;3.720872640609741;-701;-1936;21302
473;3.728853702545166;-701;-1936;21302
474;3.7368412017822266;-701;-1936;21302
475;3.744828462600708;-701;-1936;21302
476;3.7528109550476074;-701;-1936;21302
477;3.7607979774475098;-701;-1936;21302
478;3.7687811851501465;-701;-1936;21302
479;3.776765823364258;-701;-1936;21302
480;3.7848267555236816;-701;-1936;21302
481;3.792806625366211;-701;-1936;21302
482;3.800828456878662;-701;-1936;21302
483;3.8088231086730957;-701;-1936;21302
484;3.8168063163757324;-701;-1936;21302
485;3.824798107147217;-701;-1936;21302
486;3.83278226852417;-701;-1936;21302
487;3.8407700061798096;-701;-1936;21302
488;3.8487629890441895;-701;-1936;21302
489;3.8567492961883545;-701;-1936;21302
490;3.864741802215576;-701;-1936;21302
491;3.87298583984375;-701;-1936;21302
492;3.8809807300567627;-701;-1936;21302
493;3.8889658451080322;-701;-1936;21302
494;3.8969545364379883;-701;-1936;21302
495;3.9049816131591797;-701;-1936;21302
496;3.912966012954712;-701;-1936;21302
497;3.9209511280059814;-701;-1936;21302
498;3.9289376735687256;-701;-1936;21302
499;3.9369187355041504;-701;-1936;21302
500;3.9449045658111572;-701;-1936;21302
501;3.9528942108154297;-701;-1936;21302
502;3.9608800411224365;-701;-1936;21302
503;3.9688663482666016;-701;-1936;21302
504;3.976841926574707;-701;-1936;21302
