;Time;Thrust;BEM pressure;N2O pressure;N2OWeigth
0;0.0;34;0;0;35
1;0.012807607650756836;92;0;0;95
2;0.023960351943969727;134;0;0;101
3;0.034789085388183594;107;0;0;135
4;0.046675682067871094;130;0;0;106
5;0.05753755569458008;121;0;0;131
6;0.06851816177368164;118;0;0;116
7;0.0794379711151123;130;0;0;122
8;0.09058284759521484;110;0;0;126
9;0.10149455070495605;137;0;0;113
10;0.11245918273925781;105;0;0;134
11;0.12342286109924316;136;0;0;107
12;0.1343996524810791;107;0;0;137
13;0.14527153968811035;134;0;0;106
14;0.15611934661865234;113;0;0;134
15;0.16722989082336426;125;0;0;111
16;0.17821979522705078;123;0;0;129
17;0.18912053108215332;115;0;0;119
18;0.20010828971862793;133;0;0;119
19;0.21112489700317383;108;0;0;128
20;0.22217559814453125;137;0;0;110
21;0.23322439193725586;105;0;0;134
22;0.24422740936279297;136;0;0;106
23;0.25525712966918945;109;0;0;135
24;0.2661919593811035;129;0;0;108
25;0.2771494388580322;118;0;0;131
26;0.28813815116882324;121;0;0;115
27;0.29903101921081543;128;0;0;125
28;0.3098897933959961;112;0;0;123
29;0.32077646255493164;135;0;0;115
30;0.33171629905700684;107;0;0;131
31;0.34264492988586426;136;0;0;109
32;0.35361266136169434;106;0;0;135
33;0.36450862884521484;134;0;0;105
34;0.3755483627319336;110;0;0;135
35;0.38642191886901855;128;0;0;108
36;0.3972628116607666;119;0;0;132
37;0.40808963775634766;121;0;0;114
38;0.4189882278442383;127;0;0;125
39;0.43000221252441406;111;0;0;124
40;0.4409909248352051;135;0;0;115
41;0.4519786834716797;106;0;0;133
42;0.4628794193267822;137;0;0;107
43;0.47403621673583984;106;0;0;137
44;0.4849967956542969;134;0;0;106
45;0.49597668647766113;113;0;0;135
46;0.5069622993469238;125;0;0;110
47;0.5178060531616211;122;0;0;129
48;0.5287280082702637;116;0;0;118
49;0.5397295951843262;130;0;0;121
50;0.5506565570831299;109;0;0;127
51;0.5616211891174316;137;0;0;113
52;0.5725460052490234;105;0;0;134
53;0.5835237503051758;136;0;0;107
54;0.5944833755493164;108;0;0;137
55;0.6054012775421143;133;0;0;107
56;0.6163058280944824;114;0;0;134
57;0.6272397041320801;124;0;0;111
58;0.6381704807281494;124;0;0;128
59;0.6489512920379639;116;0;0;119
60;0.6599338054656982;133;0;0;120
61;0.670928955078125;108;0;0;128
62;0.6818253993988037;137;0;0;111
63;0.6927523612976074;105;0;0;135
64;0.703916072845459;136;0;0;106
65;0.7148487567901611;108;0;0;136
66;0.7259283065795898;130;0;0;107
67;0.7428865432739258;130;0;0;105
68;0.7540323734283447;106;0;0;136
69;0.765012264251709;133;0;0;106
70;0.7760279178619385;112;0;0;135
71;0.7870285511016846;125;0;0;109
72;0.797964334487915;122;0;0;129
73;0.8089172840118408;115;0;0;118
74;0.8198649883270264;132;0;0;119
75;0.8308248519897461;109;0;0;128
76;0.841808557510376;138;0;0;109
77;0.8531854152679443;105;0;0;136
78;0.8642563819885254;135;0;0;105
79;0.8772468566894531;112;0;0;131
80;0.8882088661193848;118;0;0;115
81;0.8990957736968994;129;0;0;124
82;0.9099245071411133;111;0;0;124
83;0.9208955764770508;135;0;0;115
84;0.9318084716796875;106;0;0;132
85;0.9427323341369629;137;0;0;109
86;0.9537262916564941;106;0;0;137
87;0.9646201133728027;134;0;0;107
88;0.9755868911743164;111;0;0;136
89;0.9864888191223145;127;0;0;109
90;0.9973835945129395;121;0;0;131
91;1.008338451385498;118;0;0;93
92;1.0521469116210938;102;0;0;127
93;1.063673496246338;135;0;0;103
94;1.075744390487671;111;0;0;135
95;1.0865912437438965;126;0;0;108
96;1.0974540710449219;120;0;0;130
97;1.108597993850708;117;0;0;118
98;1.1195626258850098;131;0;0;121
99;1.1304306983947754;110;0;0;126
100;1.141434669494629;136;0;0;113
101;1.1522586345672607;106;0;0;134
102;1.1632394790649414;137;0;0;108
103;1.1741971969604492;106;0;0;137
104;1.1850779056549072;133;0;0;107
105;1.1959679126739502;113;0;0;135
106;1.207075834274292;124;0;0;110
107;1.2179455757141113;124;0;0;129
108;1.228844404220581;115;0;0;118
109;1.2397983074188232;133;0;0;120
110;1.2506511211395264;108;0;0;127
111;1.2614951133728027;136;0;0;113
112;1.2724080085754395;106;0;0;134
113;1.2833287715911865;137;0;0;108
114;1.2942626476287842;106;0;0;137
115;1.3053066730499268;133;0;0;107
116;1.3162062168121338;114;0;0;135
117;1.3271563053131104;124;0;0;111
118;1.3380472660064697;124;0;0;128
119;1.348949909210205;115;0;0;119
120;1.3598747253417969;132;0;0;121
121;1.3707318305969238;108;0;0;128
122;1.3816297054290771;136;0;0;112
123;1.392519474029541;105;0;0;135
124;1.4033422470092773;136;0;0;108
125;1.4143052101135254;107;0;0;137
126;1.4253082275390625;132;0;0;107
127;1.4363088607788086;114;0;0;133
128;1.4477698802947998;134;0;0;114
129;1.4594314098358154;133;0;0;122
130;1.4702703952789307;110;0;0;125
131;1.481114387512207;136;0;0;112
132;1.4922821521759033;106;0;0;133
133;1.5032188892364502;137;0;0;108
134;1.5140647888183594;108;0;0;136
135;1.524958610534668;133;0;0;106
136;1.5359086990356445;112;0;0;134
137;1.5468175411224365;125;0;0;109
138;1.5577282905578613;123;0;0;119
139;1.5708849430084229;107;0;0;128
140;1.5817317962646484;137;0;0;111
141;1.5927526950836182;105;0;0;134
142;1.603682518005371;135;0;0;107
143;1.6145274639129639;108;0;0;137
144;1.6253561973571777;132;0;0;106
145;1.636235237121582;115;0;0;98
146;1.657249927520752;103;0;0;131
147;1.6680877208709717;118;0;0;115
148;1.6788966655731201;143;0;0;124
149;1.6897776126861572;112;0;0;123
150;1.7006244659423828;135;0;0;117
151;1.711503267288208;108;0;0;131
152;1.72243332862854;137;0;0;110
153;1.7333581447601318;106;0;0;137
154;1.7442927360534668;135;0;0;106
155;1.7551796436309814;110;0;0;136
156;1.7660555839538574;129;0;0;108
157;1.7769615650177002;119;0;0;133
158;1.7878203392028809;120;0;0;115
159;1.7987072467803955;127;0;0;125
160;1.809648036956787;112;0;0;123
161;1.8205161094665527;136;0;0;117
162;1.8314201831817627;107;0;0;132
163;1.842379093170166;137;0;0;110
164;1.853308916091919;105;0;0;136
165;1.8642308712005615;135;0;0;107
166;1.8751087188720703;110;0;0;136
167;1.8859889507293701;129;0;0;108
168;1.8968887329101562;117;0;0;133
169;1.9077136516571045;121;0;0;113
170;1.9186229705810547;127;0;0;125
171;1.9295728206634521;112;0;0;123
172;1.940436601638794;135;0;0;117
173;1.9513497352600098;107;0;0;131
174;1.9622867107391357;137;0;0;110
175;1.9732565879821777;106;0;0;136
176;1.9842026233673096;135;0;0;106
177;1.995093584060669;110;0;0;137
178;2.006030559539795;129;0;0;108
179;2.0169625282287598;118;0;0;133
180;2.027839422225952;120;0;0;114
181;2.038752555847168;127;0;0;124
182;2.049729585647583;111;0;0;123
183;2.060612440109253;135;0;0;116
184;2.0714733600616455;107;0;0;132
185;2.082416296005249;138;0;0;110
186;2.0933351516723633;106;0;0;136
187;2.1042823791503906;136;0;0;106
188;2.1151442527770996;110;0;0;136
189;2.1260111331939697;128;0;0;108
190;2.13696026802063;119;0;0;133
191;2.1478183269500732;121;0;0;115
192;2.1587302684783936;128;0;0;125
193;2.169666051864624;112;0;0;123
194;2.1805191040039062;135;0;0;117
195;2.1913599967956543;107;0;0;131
196;2.202279806137085;137;0;0;110
197;2.213218927383423;106;0;0;136
198;2.224148988723755;136;0;0;106
199;2.235034942626953;109;0;0;109
200;2.2524633407592773;101;0;0;134
201;2.2634482383728027;136;0;0;107
202;2.2744061946868896;108;0;0;136
203;2.285367965698242;133;0;0;106
204;2.2962779998779297;115;0;0;134
205;2.3071930408477783;123;0;0;111
206;2.3180949687957764;125;0;0;129
207;2.328993082046509;114;0;0;121
208;2.33994197845459;134;0;0;119
209;2.350904703140259;107;0;0;130
210;2.3617827892303467;138;0;0;112
211;2.3727028369903564;106;0;0;135
212;2.3837525844573975;136;0;0;107
213;2.394617795944214;108;0;0;137
214;2.4054207801818848;131;0;0;107
215;2.4163055419921875;115;0;0;134
216;2.4271836280822754;125;0;0;112
217;2.4380698204040527;125;0;0;128
218;2.448941469192505;115;0;0;120
219;2.459815740585327;133;0;0;120
220;2.4706966876983643;108;0;0;128
221;2.4815735816955566;137;0;0;112
222;2.4925475120544434;105;0;0;135
223;2.5034453868865967;136;0;0;107
224;2.5143773555755615;108;0;0;132
225;2.5274200439453125;121;0;0;112
226;2.5383923053741455;126;0;0;126
227;2.549337148666382;113;0;0;122
228;2.560192346572876;134;0;0;117
229;2.571122169494629;108;0;0;130
230;2.5820960998535156;138;0;0;111
231;2.592996120452881;105;0;0;136
232;2.604033946990967;135;0;0;107
233;2.6149990558624268;110;0;0;135
234;2.625948905944824;129;0;0;108
235;2.6369287967681885;118;0;0;133
236;2.6477468013763428;121;0;0;114
237;2.6587507724761963;127;0;0;124
238;2.6696746349334717;112;0;0;124
239;2.680525779724121;135;0;0;116
240;2.691389560699463;108;0;0;131
241;2.702310562133789;138;0;0;110
242;2.7132437229156494;106;0;0;136
243;2.7242653369903564;134;0;0;106
244;2.735180616378784;110;0;0;136
245;2.7460734844207764;129;0;0;108
246;2.75700044631958;119;0;0;132
247;2.7678093910217285;120;0;0;115
248;2.778749465942383;128;0;0;125
249;2.7896924018859863;111;0;0;124
250;2.800570249557495;135;0;0;117
251;2.811448335647583;106;0;0;133
252;2.822401523590088;137;0;0;109
253;2.833343505859375;106;0;0;136
254;2.844285726547241;134;0;0;106
255;2.855156660079956;110;0;0;135
256;2.8660318851470947;129;0;0;109
257;2.8769657611846924;119;0;0;132
258;2.887842893600464;121;0;0;115
259;2.8986220359802246;129;0;0;126
260;2.909518003463745;112;0;0;123
261;2.9204280376434326;134;0;0;116
262;2.9313242435455322;107;0;0;132
263;2.942293167114258;138;0;0;110
264;2.9532361030578613;107;0;0;137
265;2.964167356491089;136;0;0;106
266;2.9750683307647705;110;0;0;136
267;2.98600435256958;130;0;0;108
268;2.9969446659088135;119;0;0;132
269;3.0078115463256836;105;0;0;96
270;3.0353152751922607;101;0;0;117
271;3.050510883331299;107;0;0;128
272;3.0613880157470703;137;0;0;112
273;3.0723819732666016;106;0;0;135
274;3.0833001136779785;137;0;0;107
275;3.0942301750183105;107;0;0;137
276;3.1050803661346436;132;0;0;107
277;3.1160123348236084;114;0;0;134
278;3.126927375793457;124;0;0;110
279;3.137812376022339;123;0;0;128
280;3.148646593093872;116;0;0;120
281;3.1595165729522705;132;0;0;120
282;3.1704065799713135;110;0;0;127
283;3.1812996864318848;137;0;0;113
284;3.192218780517578;106;0;0;134
285;3.203256845474243;136;0;0;107
286;3.214158773422241;107;0;0;137
287;3.2250711917877197;133;0;0;107
288;3.2359988689422607;115;0;0;134
289;3.246978998184204;124;0;0;111
290;3.258089303970337;124;0;0;127
291;3.2689270973205566;115;0;0;120
292;3.2797372341156006;133;0;0;120
293;3.290656566619873;109;0;0;130
294;3.3015713691711426;137;0;0;112
295;3.3124585151672363;105;0;0;135
296;3.323302745819092;136;0;0;108
297;3.3341856002807617;108;0;0;137
298;3.3451685905456543;132;0;0;107
299;3.356027841567993;114;0;0;134
300;3.3670248985290527;124;0;0;111
301;3.3778889179229736;124;0;0;128
302;3.3887479305267334;115;0;0;119
303;3.3996121883392334;131;0;0;120
304;3.410492181777954;110;0;0;128
305;3.4213993549346924;137;0;0;113
306;3.4323291778564453;106;0;0;135
307;3.443721294403076;135;0;0;106
308;3.4550793170928955;108;0;0;135
309;3.466048240661621;128;0;0;111
310;3.4796502590179443;126;0;0;120
311;3.490466356277466;109;0;0;128
312;3.50132155418396;137;0;0;113
313;3.5122125148773193;106;0;0;134
314;3.5231544971466064;137;0;0;107
315;3.534067392349243;107;0;0;137
316;3.5449655055999756;133;0;0;107
317;3.5558626651763916;114;0;0;135
318;3.5667686462402344;126;0;0;111
319;3.5776307582855225;123;0;0;129
320;3.5885238647460938;116;0;0;118
321;3.599409818649292;131;0;0;122
322;3.6102259159088135;110;0;0;126
323;3.6321072578430176;98;0;0;116
324;3.643195152282715;136;0;0;107
325;3.654024124145508;108;0;0;137
326;3.664842128753662;134;0;0;106
327;3.6757352352142334;113;0;0;135
328;3.686659574508667;125;0;0;110
329;3.6974966526031494;122;0;0;130
330;3.708395481109619;118;0;0;117
331;3.719289541244507;131;0;0;122
332;3.730144739151001;110;0;0;129
333;3.7474381923675537;119;0;0;113
334;3.75836443901062;126;1;0;126
335;3.7692883014678955;114;0;0;122
336;3.7801175117492676;135;0;0;117
337;3.7910263538360596;108;0;0;130
338;3.8018665313720703;137;0;0;112
339;3.8127198219299316;106;0;0;136
340;3.82365083694458;136;0;0;107
341;3.8344881534576416;109;0;0;137
342;3.8453474044799805;132;0;0;107
343;3.8562493324279785;115;0;0;134
344;3.8671107292175293;124;0;0;112
345;3.8779428005218506;124;0;0;128
346;3.8887898921966553;115;0;0;119
347;3.899616003036499;132;0;0;121
348;3.910452127456665;109;0;0;128
349;3.9213204383850098;137;0;0;113
350;3.9322545528411865;105;0;0;135
351;3.9432458877563477;137;0;0;108
352;3.954157829284668;107;0;0;137
353;3.965039014816284;132;0;0;107
354;3.9759342670440674;114;0;0;135
355;3.986842393875122;125;0;0;111
356;3.9977355003356934;124;0;0;128
357;4.008620738983154;116;0;0;118
358;4.019537925720215;132;0;0;121
359;4.030419826507568;110;0;0;128
360;4.041352272033691;137;0;0;112
361;4.052295446395874;106;0;0;136
362;4.0632336139678955;136;0;0;107
363;4.074152708053589;108;0;0;137
364;4.085054636001587;133;0;0;107
365;4.095975875854492;114;0;0;134
366;4.106889247894287;125;0;0;111
367;4.117772340774536;123;0;0;128
368;4.128687381744385;115;0;0;119
369;4.1396567821502686;132;0;0;120
370;4.150421619415283;109;0;0;128
371;4.161334037780762;137;0;0;113
372;4.17228627204895;106;0;0;135
373;4.183048248291016;137;0;0;108
374;4.194162368774414;107;0;0;137
375;4.205047607421875;133;0;0;107
376;4.215980768203735;114;0;0;134
377;4.22690486907959;124;0;0;110
378;4.237709045410156;123;0;0;129
379;4.248687267303467;116;0;0;120
380;4.259645462036133;132;0;0;120
381;4.270490646362305;109;0;0;128
382;4.281372547149658;137;0;0;112
383;4.292377710342407;105;0;0;134
384;4.303302049636841;136;0;0;108
385;4.314265966415405;108;0;0;137
386;4.3252272605896;132;0;0;107
387;4.336081266403198;115;0;0;135
388;4.34703254699707;124;0;0;112
389;4.357883930206299;125;0;0;128
390;4.368721008300781;115;0;0;119
391;4.379644155502319;132;0;0;120
392;4.390496253967285;109;0;0;129
393;4.4012815952301025;136;0;0;113
394;4.412217617034912;105;0;0;136
395;4.423257827758789;136;0;0;104
396;4.436294794082642;110;0;0;134
397;4.447158098220825;123;0;0;111
398;4.458035230636597;125;0;0;127
399;4.4688942432403564;115;0;0;121
400;4.479768514633179;133;0;0;120
401;4.490607500076294;110;0;0;129
402;4.5014588832855225;138;0;0;112
403;4.512362003326416;105;0;0;135
404;4.5232532024383545;137;0;0;108
405;4.534159421920776;108;0;0;136
406;4.545071363449097;133;0;0;106
407;4.555983543395996;114;0;0;134
408;4.566892862319946;125;0;0;111
409;4.577749967575073;124;0;0;128
410;4.588665008544922;116;0;0;120
411;4.5995941162109375;132;0;0;121
412;4.610426425933838;109;0;0;128
413;4.621323585510254;137;0;0;113
414;4.632244825363159;106;0;0;135
415;4.643248796463013;136;0;0;108
416;4.654083967208862;107;0;0;137
417;4.665017366409302;133;0;0;106
418;4.675933361053467;114;0;0;135
419;4.686843633651733;125;0;0;111
420;4.69771671295166;123;0;0;128
421;4.708603858947754;116;0;0;119
422;4.719419002532959;132;0;0;122
423;4.730200290679932;110;0;0;127
424;4.741130352020264;137;0;0;113
425;4.752065420150757;107;0;0;135
426;4.76289963722229;137;0;0;109
427;4.77379584312439;107;0;0;137
428;4.784636974334717;135;0;0;107
429;4.795526027679443;112;0;0;135
430;4.806284189224243;127;0;0;109
431;4.817113637924194;121;0;0;132
432;4.827949047088623;119;0;0;116
433;4.8387792110443115;129;0;0;124
434;4.849703311920166;112;0;0;124
435;4.860516548156738;135;0;0;116
436;4.8713579177856445;107;0;0;131
437;4.882242202758789;137;0;0;109
438;4.893260478973389;106;0;0;136
439;4.904070615768433;135;0;0;107
440;4.9149489402771;110;0;0;136
441;4.925839424133301;129;0;0;108
442;4.936743497848511;118;0;0;133
443;4.947660684585571;121;0;0;114
444;4.958585977554321;128;0;0;124
445;4.969616174697876;111;0;0;124
446;4.980435371398926;135;0;0;116
447;4.991325616836548;107;0;0;131
