;Time;Thrust;BEM pressure;N2O pressure;N2OWeigth
0;0.0;-1.74018058749;-0.04832956621625237;-0.12403509329892456;2.190523709403919
1;0.012807607650756836;-1.28553881238;-0.04832956621625237;-0.12403509329892456;2.339645781641889
2;0.023960351943969727;-0.95631545799;-0.04832956621625237;-0.12403509329892456;2.354557988865686
3;0.034789085388183594;-1.1679590429550002;-0.04832956621625237;-0.12403509329892456;2.4390604964672025
4;0.046675682067871094;-0.98767006317;-0.04832956621625237;-0.12403509329892456;2.36698482821885
5;0.05753755569458008;-1.058217924825;-0.04832956621625237;-0.12403509329892456;2.429119024984671
6;0.06851816177368164;-1.0817338787100002;-0.04832956621625237;-0.12403509329892456;2.3918385069251786
7;0.0794379711151123;-0.98767006317;-0.04832956621625237;-0.12403509329892456;2.4067507141489752
8;0.09058284759521484;-1.1444430890700001;-0.04832956621625237;-0.12403509329892456;2.416692185631507
9;0.10149455070495605;-0.9327995041050001;-0.04832956621625237;-0.12403509329892456;2.38438240331328
10;0.11245918273925781;-1.183636345545;-0.04832956621625237;-0.12403509329892456;2.4365751285965693
11;0.12342286109924316;-0.9406381554000001;-0.04832956621625237;-0.12403509329892456;2.369470196089483
12;0.1343996524810791;-1.1679590429550002;-0.04832956621625237;-0.12403509329892456;2.444031232208468
13;0.14527153968811035;-0.95631545799;-0.04832956621625237;-0.12403509329892456;2.36698482821885
14;0.15611934661865234;-1.120927135185;-0.04832956621625237;-0.12403509329892456;2.4365751285965693
15;0.16722989082336426;-1.026863319645;-0.04832956621625237;-0.12403509329892456;2.3794116675720143
16;0.17821979522705078;-1.0425406222350002;-0.04832956621625237;-0.12403509329892456;2.4241482892434054
17;0.18912053108215332;-1.1052498325950002;-0.04832956621625237;-0.12403509329892456;2.399294610537077
18;0.20010828971862793;-0.9641541092850001;-0.04832956621625237;-0.12403509329892456;2.399294610537077
19;0.21112489700317383;-1.16012039166;-0.04832956621625237;-0.12403509329892456;2.4216629213727723
20;0.22217559814453125;-0.9327995041050001;-0.04832956621625237;-0.12403509329892456;2.3769262997013816
21;0.23322439193725586;-1.183636345545;-0.04832956621625237;-0.12403509329892456;2.4365751285965693
22;0.24422740936279297;-0.9406381554000001;-0.04832956621625237;-0.12403509329892456;2.36698482821885
23;0.25525712966918945;-1.152281740365;-0.04832956621625237;-0.12403509329892456;2.4390604964672025
24;0.2661919593811035;-0.9955087144650001;-0.04832956621625237;-0.12403509329892456;2.3719555639601158
25;0.2771494388580322;-1.0817338787100002;-0.04832956621625237;-0.12403509329892456;2.429119024984671
26;0.28813815116882324;-1.058217924825;-0.04832956621625237;-0.12403509329892456;2.3893531390545455
27;0.29903101921081543;-1.00334736576;-0.04832956621625237;-0.12403509329892456;2.4142068177608738
28;0.3098897933959961;-1.12876578648;-0.04832956621625237;-0.12403509329892456;2.4092360820196084
29;0.32077646255493164;-0.948476806695;-0.04832956621625237;-0.12403509329892456;2.3893531390545455
30;0.33171629905700684;-1.1679590429550002;-0.04832956621625237;-0.12403509329892456;2.429119024984671
31;0.34264492988586426;-0.9406381554000001;-0.04832956621625237;-0.12403509329892456;2.3744409318307484
32;0.35361266136169434;-1.17579769425;-0.04832956621625237;-0.12403509329892456;2.4390604964672025
33;0.36450862884521484;-0.95631545799;-0.04832956621625237;-0.12403509329892456;2.3644994603482172
34;0.3755483627319336;-1.1444430890700001;-0.04832956621625237;-0.12403509329892456;2.4390604964672025
35;0.38642191886901855;-1.00334736576;-0.04832956621625237;-0.12403509329892456;2.3719555639601158
36;0.3972628116607666;-1.073895227415;-0.04832956621625237;-0.12403509329892456;2.431604392855304
37;0.40808963775634766;-1.058217924825;-0.04832956621625237;-0.12403509329892456;2.386867771183913
38;0.4189882278442383;-1.011186017055;-0.04832956621625237;-0.12403509329892456;2.4142068177608738
39;0.43000221252441406;-1.136604437775;-0.04832956621625237;-0.12403509329892456;2.411721449890241
40;0.4409909248352051;-0.948476806695;-0.04832956621625237;-0.12403509329892456;2.3893531390545455
41;0.4519786834716797;-1.17579769425;-0.04832956621625237;-0.12403509329892456;2.4340897607259366
42;0.4628794193267822;-0.9327995041050001;-0.04832956621625237;-0.12403509329892456;2.369470196089483
43;0.47403621673583984;-1.17579769425;-0.04832956621625237;-0.12403509329892456;2.444031232208468
44;0.4849967956542969;-0.95631545799;-0.04832956621625237;-0.12403509329892456;2.36698482821885
45;0.49597668647766113;-1.120927135185;-0.04832956621625237;-0.12403509329892456;2.4390604964672025
46;0.5069622993469238;-1.026863319645;-0.04832956621625237;-0.12403509329892456;2.3769262997013816
47;0.5178060531616211;-1.05037927353;-0.04832956621625237;-0.12403509329892456;2.4241482892434054
48;0.5287280082702637;-1.0974111813;-0.04832956621625237;-0.12403509329892456;2.396809242666444
49;0.5397295951843262;-0.98767006317;-0.04832956621625237;-0.12403509329892456;2.4042653462783425
50;0.5506565570831299;-1.152281740365;-0.04832956621625237;-0.12403509329892456;2.4191775535021396
51;0.5616211891174316;-0.9327995041050001;-0.04832956621625237;-0.12403509329892456;2.38438240331328
52;0.5725460052490234;-1.183636345545;-0.04832956621625237;-0.12403509329892456;2.4365751285965693
53;0.5835237503051758;-0.9406381554000001;-0.04832956621625237;-0.12403509329892456;2.369470196089483
54;0.5944833755493164;-1.16012039166;-0.04832956621625237;-0.12403509329892456;2.444031232208468
55;0.6054012775421143;-0.9641541092850001;-0.04832956621625237;-0.12403509329892456;2.369470196089483
56;0.6163058280944824;-1.11308848389;-0.04832956621625237;-0.12403509329892456;2.4365751285965693
57;0.6272397041320801;-1.03470197094;-0.04832956621625237;-0.12403509329892456;2.3794116675720143
58;0.6381704807281494;-1.03470197094;-0.04832956621625237;-0.12403509329892456;2.4216629213727723
59;0.6489512920379639;-1.0974111813;-0.04832956621625237;-0.12403509329892456;2.399294610537077
60;0.6599338054656982;-0.9641541092850001;-0.04832956621625237;-0.12403509329892456;2.40177997840771
61;0.670928955078125;-1.16012039166;-0.04832956621625237;-0.12403509329892456;2.4216629213727723
62;0.6818253993988037;-0.9327995041050001;-0.04832956621625237;-0.12403509329892456;2.3794116675720143
63;0.6927523612976074;-1.183636345545;-0.04832956621625237;-0.12403509329892456;2.4390604964672025
64;0.703916072845459;-0.9406381554000001;-0.04832956621625237;-0.12403509329892456;2.36698482821885
65;0.7148487567901611;-1.16012039166;-0.04832956621625237;-0.12403509329892456;2.441545864337835
66;0.7259283065795898;-0.98767006317;-0.04832956621625237;-0.12403509329892456;2.369470196089483
67;0.7428865432739258;-0.98767006317;-0.04832956621625237;-0.12403509329892456;2.3644994603482172
68;0.7540323734283447;-1.17579769425;-0.04832956621625237;-0.12403509329892456;2.441545864337835
69;0.765012264251709;-0.9641541092850001;-0.04832956621625237;-0.12403509329892456;2.36698482821885
70;0.7760279178619385;-1.12876578648;-0.04832956621625237;-0.12403509329892456;2.4390604964672025
71;0.7870285511016846;-1.026863319645;-0.04832956621625237;-0.12403509329892456;2.3744409318307484
72;0.797964334487915;-1.05037927353;-0.04832956621625237;-0.12403509329892456;2.4241482892434054
73;0.8089172840118408;-1.1052498325950002;-0.04832956621625237;-0.12403509329892456;2.396809242666444
74;0.8198649883270264;-0.9719927605800001;-0.04832956621625237;-0.12403509329892456;2.399294610537077
75;0.8308248519897461;-1.152281740365;-0.04832956621625237;-0.12403509329892456;2.4216629213727723
76;0.841808557510376;-0.92496085281;-0.04832956621625237;-0.12403509329892456;2.3744409318307484
77;0.8531854152679443;-1.183636345545;-0.04832956621625237;-0.12403509329892456;2.441545864337835
78;0.8642563819885254;-0.948476806695;-0.04832956621625237;-0.12403509329892456;2.3644994603482172
79;0.8772468566894531;-1.12876578648;-0.04832956621625237;-0.12403509329892456;2.429119024984671
80;0.8882088661193848;-1.0817338787100002;-0.04832956621625237;-0.12403509329892456;2.3893531390545455
81;0.8990957736968994;-0.9955087144650001;-0.04832956621625237;-0.12403509329892456;2.411721449890241
82;0.9099245071411133;-1.136604437775;-0.04832956621625237;-0.12403509329892456;2.411721449890241
83;0.9208955764770508;-0.948476806695;-0.04832956621625237;-0.12403509329892456;2.3893531390545455
84;0.9318084716796875;-1.17579769425;-0.04832956621625237;-0.12403509329892456;2.431604392855304
85;0.9427323341369629;-0.9327995041050001;-0.04832956621625237;-0.12403509329892456;2.3744409318307484
86;0.9537262916564941;-1.17579769425;-0.04832956621625237;-0.12403509329892456;2.444031232208468
87;0.9646201133728027;-0.95631545799;-0.04832956621625237;-0.12403509329892456;2.369470196089483
88;0.9755868911743164;-1.136604437775;-0.04832956621625237;-0.12403509329892456;2.441545864337835
89;0.9864888191223145;-1.011186017055;-0.04832956621625237;-0.12403509329892456;2.3744409318307484
90;0.9973835945129395;-1.058217924825;-0.04832956621625237;-0.12403509329892456;2.429119024984671
91;1.008338451385498;-1.0817338787100002;-0.04832956621625237;-0.12403509329892456;2.334675045900623
92;1.0521469116210938;-1.2071522994300001;-0.04832956621625237;-0.12403509329892456;2.4191775535021396
93;1.063673496246338;-0.948476806695;-0.04832956621625237;-0.12403509329892456;2.3595287246069514
94;1.075744390487671;-1.136604437775;-0.04832956621625237;-0.12403509329892456;2.4390604964672025
95;1.0865912437438965;-1.0190246683500002;-0.04832956621625237;-0.12403509329892456;2.3719555639601158
96;1.0974540710449219;-1.06605657612;-0.04832956621625237;-0.12403509329892456;2.426633657114038
97;1.108597993850708;-1.089572530005;-0.04832956621625237;-0.12403509329892456;2.396809242666444
98;1.1195626258850098;-0.979831411875;-0.04832956621625237;-0.12403509329892456;2.4042653462783425
99;1.1304306983947754;-1.1444430890700001;-0.04832956621625237;-0.12403509329892456;2.416692185631507
100;1.141434669494629;-0.9406381554000001;-0.04832956621625237;-0.12403509329892456;2.38438240331328
101;1.1522586345672607;-1.17579769425;-0.04832956621625237;-0.12403509329892456;2.4365751285965693
102;1.1632394790649414;-0.9327995041050001;-0.04832956621625237;-0.12403509329892456;2.3719555639601158
103;1.1741971969604492;-1.17579769425;-0.04832956621625237;-0.12403509329892456;2.444031232208468
104;1.1850779056549072;-0.9641541092850001;-0.04832956621625237;-0.12403509329892456;2.369470196089483
105;1.1959679126739502;-1.120927135185;-0.04832956621625237;-0.12403509329892456;2.4390604964672025
106;1.207075834274292;-1.03470197094;-0.04832956621625237;-0.12403509329892456;2.3769262997013816
107;1.2179455757141113;-1.03470197094;-0.04832956621625237;-0.12403509329892456;2.4241482892434054
108;1.228844404220581;-1.1052498325950002;-0.04832956621625237;-0.12403509329892456;2.396809242666444
109;1.2397983074188232;-0.9641541092850001;-0.04832956621625237;-0.12403509329892456;2.40177997840771
110;1.2506511211395264;-1.16012039166;-0.04832956621625237;-0.12403509329892456;2.4191775535021396
111;1.2614951133728027;-0.9406381554000001;-0.04832956621625237;-0.12403509329892456;2.38438240331328
112;1.2724080085754395;-1.17579769425;-0.04832956621625237;-0.12403509329892456;2.4365751285965693
113;1.2833287715911865;-0.9327995041050001;-0.04832956621625237;-0.12403509329892456;2.3719555639601158
114;1.2942626476287842;-1.17579769425;-0.04832956621625237;-0.12403509329892456;2.444031232208468
115;1.3053066730499268;-0.9641541092850001;-0.04832956621625237;-0.12403509329892456;2.369470196089483
116;1.3162062168121338;-1.11308848389;-0.04832956621625237;-0.12403509329892456;2.4390604964672025
117;1.3271563053131104;-1.03470197094;-0.04832956621625237;-0.12403509329892456;2.3794116675720143
118;1.3380472660064697;-1.03470197094;-0.04832956621625237;-0.12403509329892456;2.4216629213727723
119;1.348949909210205;-1.1052498325950002;-0.04832956621625237;-0.12403509329892456;2.399294610537077
120;1.3598747253417969;-0.9719927605800001;-0.04832956621625237;-0.12403509329892456;2.4042653462783425
121;1.3707318305969238;-1.16012039166;-0.04832956621625237;-0.12403509329892456;2.4216629213727723
122;1.3816297054290771;-0.9406381554000001;-0.04832956621625237;-0.12403509329892456;2.381897035442647
123;1.392519474029541;-1.183636345545;-0.04832956621625237;-0.12403509329892456;2.4390604964672025
124;1.4033422470092773;-0.9406381554000001;-0.04832956621625237;-0.12403509329892456;2.3719555639601158
125;1.4143052101135254;-1.1679590429550002;-0.04832956621625237;-0.12403509329892456;2.444031232208468
126;1.4253082275390625;-0.9719927605800001;-0.04832956621625237;-0.12403509329892456;2.369470196089483
127;1.4363088607788086;-1.11308848389;-0.04832956621625237;-0.12403509329892456;2.4340897607259366
128;1.4477698802947998;-0.95631545799;-0.04832956621625237;-0.12403509329892456;2.386867771183913
129;1.4594314098358154;-0.9641541092850001;-0.04832956621625237;-0.12403509329892456;2.4067507141489752
130;1.4702703952789307;-1.1444430890700001;-0.04832956621625237;-0.12403509329892456;2.4142068177608738
131;1.481114387512207;-0.9406381554000001;-0.04832956621625237;-0.12403509329892456;2.381897035442647
132;1.4922821521759033;-1.17579769425;-0.04832956621625237;-0.12403509329892456;2.4340897607259366
133;1.5032188892364502;-0.9327995041050001;-0.04832956621625237;-0.12403509329892456;2.3719555639601158
134;1.5140647888183594;-1.16012039166;-0.04832956621625237;-0.12403509329892456;2.441545864337835
135;1.524958610534668;-0.9641541092850001;-0.04832956621625237;-0.12403509329892456;2.36698482821885
136;1.5359086990356445;-1.12876578648;-0.04832956621625237;-0.12403509329892456;2.4365751285965693
137;1.5468175411224365;-1.026863319645;-0.04832956621625237;-0.12403509329892456;2.3744409318307484
138;1.5577282905578613;-1.0425406222350002;-0.04832956621625237;-0.12403509329892456;2.399294610537077
139;1.5708849430084229;-1.1679590429550002;-0.04832956621625237;-0.12403509329892456;2.4216629213727723
140;1.5817317962646484;-0.9327995041050001;-0.04832956621625237;-0.12403509329892456;2.3794116675720143
141;1.5927526950836182;-1.183636345545;-0.04832956621625237;-0.12403509329892456;2.4365751285965693
142;1.603682518005371;-0.948476806695;-0.04832956621625237;-0.12403509329892456;2.369470196089483
143;1.6145274639129639;-1.16012039166;-0.04832956621625237;-0.12403509329892456;2.444031232208468
144;1.6253561973571777;-0.9719927605800001;-0.04832956621625237;-0.12403509329892456;2.36698482821885
145;1.636235237121582;-1.1052498325950002;-0.04832956621625237;-0.12403509329892456;2.3471018852537875
146;1.657249927520752;-1.199313648135;-0.04832956621625237;-0.12403509329892456;2.429119024984671
147;1.6680877208709717;-1.0817338787100002;-0.04832956621625237;-0.12403509329892456;2.3893531390545455
148;1.6788966655731201;-0.885767596335;-0.04832956621625237;-0.12403509329892456;2.411721449890241
149;1.6897776126861572;-1.12876578648;-0.04832956621625237;-0.12403509329892456;2.4092360820196084
150;1.7006244659423828;-0.948476806695;-0.04832956621625237;-0.12403509329892456;2.3943238747958113
151;1.711503267288208;-1.16012039166;-0.04832956621625237;-0.12403509329892456;2.429119024984671
152;1.72243332862854;-0.9327995041050001;-0.04832956621625237;-0.12403509329892456;2.3769262997013816
153;1.7333581447601318;-1.17579769425;-0.04832956621625237;-0.12403509329892456;2.444031232208468
154;1.7442927360534668;-0.948476806695;-0.04832956621625237;-0.12403509329892456;2.36698482821885
155;1.7551796436309814;-1.1444430890700001;-0.04832956621625237;-0.12403509329892456;2.441545864337835
156;1.7660555839538574;-0.9955087144650001;-0.04832956621625237;-0.12403509329892456;2.3719555639601158
157;1.7769615650177002;-1.073895227415;-0.04832956621625237;-0.12403509329892456;2.4340897607259366
158;1.7878203392028809;-1.06605657612;-0.04832956621625237;-0.12403509329892456;2.3893531390545455
159;1.7987072467803955;-1.011186017055;-0.04832956621625237;-0.12403509329892456;2.4142068177608738
160;1.809648036956787;-1.12876578648;-0.04832956621625237;-0.12403509329892456;2.4092360820196084
161;1.8205161094665527;-0.9406381554000001;-0.04832956621625237;-0.12403509329892456;2.3943238747958113
162;1.8314201831817627;-1.1679590429550002;-0.04832956621625237;-0.12403509329892456;2.431604392855304
163;1.842379093170166;-0.9327995041050001;-0.04832956621625237;-0.12403509329892456;2.3769262997013816
164;1.853308916091919;-1.183636345545;-0.04832956621625237;-0.12403509329892456;2.441545864337835
165;1.8642308712005615;-0.948476806695;-0.04832956621625237;-0.12403509329892456;2.369470196089483
166;1.8751087188720703;-1.1444430890700001;-0.04832956621625237;-0.12403509329892456;2.441545864337835
167;1.8859889507293701;-0.9955087144650001;-0.04832956621625237;-0.12403509329892456;2.3719555639601158
168;1.8968887329101562;-1.089572530005;-0.04832956621625237;-0.12403509329892456;2.4340897607259366
169;1.9077136516571045;-1.058217924825;-0.04832956621625237;-0.12403509329892456;2.38438240331328
170;1.9186229705810547;-1.011186017055;-0.04832956621625237;-0.12403509329892456;2.4142068177608738
171;1.9295728206634521;-1.12876578648;-0.04832956621625237;-0.12403509329892456;2.4092360820196084
172;1.940436601638794;-0.948476806695;-0.04832956621625237;-0.12403509329892456;2.3943238747958113
173;1.9513497352600098;-1.1679590429550002;-0.04832956621625237;-0.12403509329892456;2.429119024984671
174;1.9622867107391357;-0.9327995041050001;-0.04832956621625237;-0.12403509329892456;2.3769262997013816
175;1.9732565879821777;-1.17579769425;-0.04832956621625237;-0.12403509329892456;2.441545864337835
176;1.9842026233673096;-0.948476806695;-0.04832956621625237;-0.12403509329892456;2.36698482821885
177;1.995093584060669;-1.1444430890700001;-0.04832956621625237;-0.12403509329892456;2.444031232208468
178;2.006030559539795;-0.9955087144650001;-0.04832956621625237;-0.12403509329892456;2.3719555639601158
179;2.0169625282287598;-1.0817338787100002;-0.04832956621625237;-0.12403509329892456;2.4340897607259366
180;2.027839422225952;-1.06605657612;-0.04832956621625237;-0.12403509329892456;2.386867771183913
181;2.038752555847168;-1.011186017055;-0.04832956621625237;-0.12403509329892456;2.411721449890241
182;2.049729585647583;-1.136604437775;-0.04832956621625237;-0.12403509329892456;2.4092360820196084
183;2.060612440109253;-0.948476806695;-0.04832956621625237;-0.12403509329892456;2.3918385069251786
184;2.0714733600616455;-1.1679590429550002;-0.04832956621625237;-0.12403509329892456;2.431604392855304
185;2.082416296005249;-0.92496085281;-0.04832956621625237;-0.12403509329892456;2.3769262997013816
186;2.0933351516723633;-1.17579769425;-0.04832956621625237;-0.12403509329892456;2.441545864337835
187;2.1042823791503906;-0.9406381554000001;-0.04832956621625237;-0.12403509329892456;2.36698482821885
188;2.1151442527770996;-1.1444430890700001;-0.04832956621625237;-0.12403509329892456;2.441545864337835
189;2.1260111331939697;-1.00334736576;-0.04832956621625237;-0.12403509329892456;2.3719555639601158
190;2.13696026802063;-1.073895227415;-0.04832956621625237;-0.12403509329892456;2.4340897607259366
191;2.1478183269500732;-1.058217924825;-0.04832956621625237;-0.12403509329892456;2.3893531390545455
192;2.1587302684783936;-1.00334736576;-0.04832956621625237;-0.12403509329892456;2.4142068177608738
193;2.169666051864624;-1.12876578648;-0.04832956621625237;-0.12403509329892456;2.4092360820196084
194;2.1805191040039062;-0.948476806695;-0.04832956621625237;-0.12403509329892456;2.3943238747958113
195;2.1913599967956543;-1.1679590429550002;-0.04832956621625237;-0.12403509329892456;2.429119024984671
196;2.202279806137085;-0.9327995041050001;-0.04832956621625237;-0.12403509329892456;2.3769262997013816
197;2.213218927383423;-1.17579769425;-0.04832956621625237;-0.12403509329892456;2.441545864337835
198;2.224148988723755;-0.9406381554000001;-0.04832956621625237;-0.12403509329892456;2.36698482821885
