;Time;Thrust;BEM pressure;N2O pressure;N2OWeigth
0;0.0;32.34227524317;-0.04530896832773659;-0.11210864202018182;2.66522897269479
1;0.01591777801513672;32.365791197055;-0.043798669383478706;-0.11210864202018182;2.6900826514011182
2;0.030155658721923828;32.31092063799;-0.043798669383478706;-0.11210864202018182;2.685111915659853
3;0.0446317195892334;32.420661756120005;-0.043798669383478706;-0.11210864202018182;2.6577728690828915
4;0.058948516845703125;32.35795254576;-0.04530896832773659;-0.11210864202018182;2.68262654778922
5;0.07340335845947266;32.2952433354;-0.04530896832773659;-0.11210864202018182;2.680141179918587
6;0.08775138854980469;32.2952433354;-0.043798669383478706;-0.11210864202018182;2.675170444177321
7;0.10205912590026855;32.35795254576;-0.043798669383478706;-0.10813315826060091;2.6776558120479543
8;0.1172032356262207;32.37362984835;-0.043798669383478706;-0.11210864202018182;2.6602582369535246
9;0.13146305084228516;32.420661756120005;-0.04530896832773659;-0.11210864202018182;2.6602582369535246
10;0.1459798812866211;32.303081986695005;-0.04530896832773659;-0.11210864202018182;2.6925680192717514
11;0.16025280952453613;32.38930715094;-0.043798669383478706;-0.11210864202018182;2.68262654778922
12;0.17475652694702148;32.318759289285005;-0.043798669383478706;-0.10813315826060091;2.68262654778922
13;0.18915176391601562;32.381468499645;-0.04530896832773659;-0.11608412577976274;2.6602582369535246
14;0.20364642143249512;32.32659794058;-0.043798669383478706;-0.11210864202018182;2.6726850763066885
15;0.21800446510314941;32.420661756120005;-0.043798669383478706;-0.10813315826060091;2.6900826514011182
16;0.23231029510498047;32.334436591875004;-0.04228837043922082;-0.11608412577976274;2.6925680192717514
17;0.24681615829467773;32.37362984835;-0.043798669383478706;-0.10813315826060091;2.66522897269479
18;0.26116013526916504;32.412823104825;-0.043798669383478706;-0.11210864202018182;2.6875972835304855
19;0.27561187744140625;32.38930715094;-0.04681926727199448;-0.10813315826060091;2.6925680192717514
20;0.2900419235229492;32.287404684105;-0.04530896832773659;-0.11210864202018182;2.670199708436056
21;0.3044266700744629;32.37362984835;-0.043798669383478706;-0.11210864202018182;2.6925680192717514
22;0.3188047409057617;32.412823104825;-0.043798669383478706;-0.10813315826060091;2.680141179918587
23;0.3332793712615967;32.32659794058;-0.043798669383478706;-0.11210864202018182;2.6726850763066885
24;0.34762144088745117;32.365791197055;-0.04228837043922082;-0.11210864202018182;2.6627436048241573
25;0.3619344234466553;32.334436591875004;-0.043798669383478706;-0.11210864202018182;2.6875972835304855
26;0.37633514404296875;32.35795254576;-0.043798669383478706;-0.11210864202018182;2.68262654778922
27;0.3907771110534668;32.404984453530005;-0.043798669383478706;-0.11210864202018182;2.667714340565423
28;0.40518975257873535;32.37362984835;-0.043798669383478706;-0.11608412577976274;2.6925680192717514
29;0.419605016708374;32.350113894465004;-0.043798669383478706;-0.11210864202018182;2.680141179918587
30;0.43401193618774414;32.34227524317;-0.04530896832773659;-0.10813315826060091;2.6925680192717514
31;0.4483926296234131;32.350113894465004;-0.043798669383478706;-0.11210864202018182;2.68262654778922
32;0.46274352073669434;32.130631658205004;-0.04530896832773659;-0.11608412577976274;2.695053387142384
33;0.4770934581756592;32.38930715094;-0.04530896832773659;-0.11210864202018182;2.6925680192717514
34;0.4914052486419678;32.38930715094;-0.043798669383478706;-0.12005960953934365;2.675170444177321
35;0.5058212280273438;32.436339058710004;-0.04530896832773659;-0.12005960953934365;2.70002412288365
36;0.5201570987701416;32.32659794058;-0.04530896832773659;-0.12005960953934365;2.6776558120479543
37;0.5344922542572021;32.365791197055;-0.043798669383478706;-0.11210864202018182;2.667714340565423
38;0.5488488674163818;32.365791197055;-0.043798669383478706;-0.11210864202018182;2.667714340565423
39;0.5634546279907227;32.287404684105;-0.043798669383478706;-0.11210864202018182;2.6925680192717514
40;0.5778598785400391;32.32659794058;-0.043798669383478706;-0.11210864202018182;2.68262654778922
41;0.5921285152435303;32.37362984835;-0.043798669383478706;-0.11608412577976274;2.6627436048241573
42;0.6065695285797119;32.31092063799;-0.04530896832773659;-0.11608412577976274;2.6875972835304855
43;0.62095046043396;32.381468499645;-0.04530896832773659;-0.11210864202018182;2.6925680192717514
44;0.6354734897613525;32.381468499645;-0.043798669383478706;-0.11210864202018182;2.66522897269479
45;0.6523540019989014;32.350113894465004;-0.043798669383478706;-0.11608412577976274;2.6875972835304855
46;0.6712398529052734;32.32659794058;-0.043798669383478706;-0.11608412577976274;2.6900826514011182
47;0.6900508403778076;32.334436591875004;-0.043798669383478706;-0.11210864202018182;2.670199708436056
48;0.7089297771453857;32.37362984835;-0.043798669383478706;-0.10813315826060091;2.680141179918587
49;0.7277936935424805;32.365791197055;-0.043798669383478706;-0.11210864202018182;2.6776558120479543
50;0.746612548828125;32.420661756120005;-0.043798669383478706;-0.11210864202018182;2.6602582369535246
51;0.7655084133148193;32.397145802235;-0.043798669383478706;-0.11210864202018182;2.685111915659853
52;0.7844409942626953;32.32659794058;-0.04228837043922082;-0.10813315826060091;2.685111915659853
53;0.8034522533416748;32.381468499645;-0.043798669383478706;-0.10813315826060091;2.6900826514011182
54;0.8222789764404297;32.420661756120005;-0.04228837043922082;-0.10813315826060091;2.667714340565423
55;0.8411579132080078;32.318759289285005;-0.04228837043922082;-0.11210864202018182;2.685111915659853
56;0.8601016998291016;32.585273433315;-0.043798669383478706;-0.11210864202018182;2.6577728690828915
57;0.8789894580841064;32.31092063799;-0.04228837043922082;-0.11608412577976274;2.6925680192717514
58;0.8979523181915283;32.34227524317;-0.043798669383478706;-0.11210864202018182;2.6900826514011182
59;0.9169011116027832;32.412823104825;-0.04681926727199448;-0.11608412577976274;2.6726850763066885
60;0.9356698989868164;32.35795254576;-0.043798669383478706;-0.11608412577976274;2.667714340565423
61;0.9545040130615234;32.32659794058;-0.04530896832773659;-0.11608412577976274;2.6577728690828915
62;0.9733917713165283;32.34227524317;-0.043798669383478706;-0.11608412577976274;2.6875972835304855
63;0.9921345710754395;32.420661756120005;-0.043798669383478706;-0.11210864202018182;2.6627436048241573
64;1.011094570159912;32.334436591875004;-0.04530896832773659;-0.10415767450101998;2.68262654778922
65;1.077322006225586;32.436339058710004;-0.04530896832773659;-0.12005960953934365;2.6875972835304855
66;1.0918138027191162;32.31092063799;-0.04228837043922082;-0.11608412577976274;2.6552875012122588
67;1.1062417030334473;32.334436591875004;-0.043798669383478706;-0.11210864202018182;2.6776558120479543
68;1.1206836700439453;32.452016361300004;-0.04530896832773659;-0.10813315826060091;2.6602582369535246
69;1.1354045867919922;32.38930715094;-0.04530896832773659;-0.12005960953934365;2.6627436048241573
70;1.1507163047790527;32.334436591875004;-0.04681926727199448;-0.12403509329892456;3.1374488681150283
71;1.1650524139404297;32.444177710005;-0.04530896832773659;-0.12005960953934365;2.675170444177321
72;1.1850473880767822;32.38930715094;-0.043798669383478706;-0.11210864202018182;2.680141179918587
73;1.1995329856872559;32.553918828135004;-0.043798669383478706;-0.10813315826060091;2.685111915659853
74;1.2139990329742432;32.553918828135004;-0.04228837043922082;-0.13993702833724822;2.6726850763066885
75;1.228334903717041;32.54608017684;-0.043798669383478706;-0.11608412577976274;2.680141179918587
76;1.2427148818969727;32.616628038495;-0.043798669383478706;-0.11210864202018182;2.6900826514011182
77;1.2571165561676025;32.54608017684;-0.043798669383478706;-0.11210864202018182;2.6577728690828915
78;1.2714416980743408;32.616628038495;-0.043798669383478706;-0.10813315826060091;2.6900826514011182
79;1.2859232425689697;32.59311208461;-0.043798669383478706;-0.11210864202018182;2.680141179918587
80;1.3003594875335693;32.585273433315;-0.04530896832773659;-0.11608412577976274;2.6776558120479543
81;1.314697265625;32.57743478202;-0.043798669383478706;-0.11210864202018182;2.6925680192717514
82;1.3291220664978027;32.56175747943;-0.04228837043922082;-0.11608412577976274;2.6875972835304855
83;1.3435449600219727;32.67149859756;-0.043798669383478706;-0.11608412577976274;2.675170444177321
84;1.357874870300293;32.789078366985;-0.043798669383478706;-0.11210864202018182;2.6875972835304855
85;1.3722608089447021;32.789078366985;-0.043798669383478706;-0.11608412577976274;2.6900826514011182
86;1.3870627880096436;32.843948926050004;-0.04228837043922082;-0.11608412577976274;2.6726850763066885
87;1.401430606842041;32.89098083382;-0.04228837043922082;-0.11210864202018182;2.6552875012122588
88;1.4160006046295166;33.0791084649;-0.04530896832773659;-0.11210864202018182;2.6875972835304855
89;1.4305603504180908;33.322106655045005;-0.04228837043922082;-0.12005960953934365;2.6552875012122588
90;1.4449381828308105;33.478879680945;-0.043798669383478706;-0.11608412577976274;2.667714340565423
91;1.4593861103057861;33.75323247627;-0.04530896832773659;-0.11210864202018182;2.68262654778922
92;1.4737908840179443;33.847296291810004;-0.043798669383478706;-0.11210864202018182;2.6726850763066885
93;1.488048791885376;33.97271471253;-0.043798669383478706;-0.11210864202018182;2.667714340565423
94;1.502504825592041;34.262744810445;-0.043798669383478706;-0.11608412577976274;2.6627436048241573
95;1.517167568206787;34.905514216635005;-0.043798669383478706;-0.11210864202018182;2.6627436048241573
96;1.531503677368164;35.658024740955;-0.043798669383478706;-0.11210864202018182;2.675170444177321
97;1.5460174083709717;36.473244475635;-0.043798669383478706;-0.11608412577976274;2.6577728690828915
98;1.56044340133667;36.85733838909;-0.043798669383478706;-0.11210864202018182;2.6900826514011182
99;1.5748140811920166;37.57849430823;-0.04530896832773659;-0.11608412577976274;2.6577728690828915
100;1.589102029800415;38.730776048595004;-0.043798669383478706;-0.11608412577976274;2.6900826514011182
101;1.6036350727081299;39.922251045435004;-0.043798669383478706;-0.11210864202018182;2.6602582369535246
102;1.6180081367492676;40.66692291846;-0.04530896832773659;-0.11608412577976274;2.680141179918587
103;1.632401943206787;40.815857293065;-0.043798669383478706;-0.12005960953934365;2.685111915659853
104;1.6577105522155762;41.65459298163;-0.043798669383478706;-0.11210864202018182;2.6776558120479543
105;1.6720175743103027;42.869583932355006;-0.043798669383478706;-0.11210864202018182;2.66522897269479
106;1.686739444732666;43.84941534423;-0.043798669383478706;-0.11210864202018182;2.6875972835304855
107;1.7012033462524414;44.625441822435;-0.04530896832773659;-0.11210864202018182;2.6925680192717514
108;1.715590238571167;45.048728992365;-0.04530896832773659;-0.11608412577976274;2.675170444177321
109;1.7298991680145264;45.95017389129;-0.04530896832773659;-0.11210864202018182;2.6900826514011182
110;1.744347095489502;47.776579643025;-0.043798669383478706;-0.11210864202018182;2.685111915659853
111;1.7604589462280273;49.91653144656;-0.04530896832773659;-0.11608412577976274;2.6602582369535246
112;1.7793009281158447;50.355495919080006;-0.043798669383478706;-0.10813315826060091;2.685111915659853
113;1.7982745170593262;50.128175031525004;-0.04530896832773659;-0.11210864202018182;2.685111915659853
114;1.8172085285186768;51.209908910235;-0.043798669383478706;-0.11608412577976274;2.680141179918587
115;1.8361191749572754;52.158385716930006;-0.043798669383478706;-0.11608412577976274;2.670199708436056
116;1.854863166809082;52.495447722615005;-0.04530896832773659;-0.11210864202018182;2.66522897269479
117;1.873810052871704;52.816832425710004;-0.043798669383478706;-0.11210864202018182;2.6875972835304855
118;1.8927538394927979;53.146055780100006;-0.043798669383478706;-0.11608412577976274;2.6900826514011182
119;1.911677598953247;53.53798834485001;-0.043798669383478706;-0.11608412577976274;2.6875972835304855
120;1.9305195808410645;53.859373047945006;-0.043798669383478706;-0.10813315826060091;2.6602582369535246
121;1.9493155479431152;54.078855284205005;-0.04530896832773659;-0.11210864202018182;2.6900826514011182
122;1.9683613777160645;54.470787848955005;-0.04530896832773659;-0.11608412577976274;2.6776558120479543
123;1.987455129623413;54.384562684710005;-0.043798669383478706;-0.11210864202018182;2.6900826514011182
124;2.006404161453247;54.33753077694001;-0.04228837043922082;-0.11210864202018182;2.6900826514011182
125;2.02526593208313;54.22778965881;-0.04228837043922082;-0.11210864202018182;2.6577728690828915
126;2.0443458557128906;54.768656598165;-0.043798669383478706;-0.11608412577976274;2.680141179918587
127;2.0633745193481445;55.811197220400004;-0.04530896832773659;-0.11608412577976274;2.6627436048241573
128;2.0822153091430664;58.978012343580005;-0.043798669383478706;-0.11210864202018182;2.670199708436056
129;2.101240396499634;59.07207615912;-0.043798669383478706;-0.11210864202018182;2.680141179918587
130;2.1200501918792725;58.05305149077;-0.043798669383478706;-0.11210864202018182;2.667714340565423
131;2.1389548778533936;60.31058306373;-0.043798669383478706;-0.10813315826060091;2.6602582369535246
132;2.1578590869903564;62.45837351856001;-0.043798669383478706;-0.11210864202018182;2.6925680192717514
133;2.176898717880249;63.46172088432;-0.043798669383478706;-0.11210864202018182;2.6602582369535246
134;2.195737600326538;63.767428284825;-0.04228837043922082;-0.11608412577976274;2.6925680192717514
135;2.2145636081695557;64.66887318375001;-0.043798669383478706;-0.11210864202018182;2.66522897269479
136;2.2333781719207764;65.20190147181;-0.043798669383478706;-0.11210864202018182;2.6925680192717514
137;2.2521603107452393;66.228764791455;-0.043798669383478706;-0.11210864202018182;2.667714340565423
138;2.2742929458618164;66.58150409973;-0.043798669383478706;-0.11608412577976274;2.6925680192717514
139;2.293283700942993;66.77747038210501;-0.04530896832773659;-0.11608412577976274;2.6875972835304855
140;2.312105655670166;66.620697356205;-0.04530896832773659;-0.11210864202018182;2.6602582369535246
141;2.33100962638855;66.652051961385;-0.043798669383478706;-0.11608412577976274;2.670199708436056
142;2.349855422973633;68.36871659499;-0.043798669383478706;-0.11608412577976274;2.6925680192717514
143;2.368722438812256;68.29033008204;-0.043798669383478706;-0.11210864202018182;2.685111915659853
144;2.3875222206115723;66.92640475671;-0.043798669383478706;-0.11210864202018182;2.670199708436056
145;2.4064249992370605;67.31833732146;-0.043798669383478706;-0.11608412577976274;2.6602582369535246
146;2.4252829551696777;68.58036017995501;-0.043798669383478706;-0.11210864202018182;2.680141179918587
147;2.444183826446533;68.69793994938;-0.043798669383478706;-0.11210864202018182;2.6925680192717514
148;2.4632017612457275;68.34520064110501;-0.043798669383478706;-0.12005960953934365;2.6602582369535246
149;2.4819467067718506;68.407909851465;-0.04530896832773659;-0.11608412577976274;2.685111915659853
150;2.500880479812622;68.40007120017;-0.043798669383478706;-0.11210864202018182;2.66522897269479
151;2.5196852684020996;68.768487811035;-0.04530896832773659;-0.10813315826060091;2.670199708436056
152;2.5385661125183105;69.19177498096501;-0.043798669383478706;-0.11210864202018182;2.685111915659853
153;2.5575108528137207;69.003647349885;-0.04530896832773659;-0.11210864202018182;2.685111915659853
154;2.5763919353485107;69.18393632967;-0.043798669383478706;-0.10813315826060091;2.6925680192717514
155;2.5955758094787598;70.2343156032;-0.04228837043922082;-0.11210864202018182;2.695053387142384
156;2.6144356727600098;70.72815063478501;-0.04228837043922082;-0.10813315826060091;2.697538755013017
157;2.6333084106445312;70.49299109593501;-0.043798669383478706;-0.11210864202018182;2.6726850763066885
158;2.6520674228668213;70.477313793345;-0.04228837043922082;-0.11210864202018182;2.685111915659853
159;2.671065092086792;70.83005310162001;-0.043798669383478706;-0.10813315826060091;2.680141179918587
160;2.6982028484344482;71.68446609277501;-0.043798669383478706;-0.11210864202018182;2.6925680192717514
161;2.7173306941986084;72.17830112436;-0.043798669383478706;-0.11210864202018182;2.6875972835304855
162;2.7361724376678467;73.21300309530001;-0.04228837043922082;-0.11608412577976274;2.6875972835304855
163;2.7546024322509766;75.12563401128;-0.04530896832773659;-0.11210864202018182;2.670199708436056
164;2.768975257873535;75.682178253225;-0.043798669383478706;-0.11210864202018182;2.695053387142384
165;2.7834084033966064;74.757217400415;-0.04530896832773659;-0.11608412577976274;2.6776558120479543
166;2.7977771759033203;73.96551361962;-0.043798669383478706;-0.11210864202018182;2.66522897269479
167;2.8121330738067627;74.05957743516001;-0.043798669383478706;-0.11210864202018182;2.68262654778922
168;2.8265748023986816;74.114447994225;-0.04530896832773659;-0.11210864202018182;2.66522897269479
169;2.840928792953491;74.39663944084501;-0.043798669383478706;-0.11210864202018182;2.685111915659853
170;2.855313539505005;74.53773516415501;-0.04530896832773659;-0.11210864202018182;2.6900826514011182
171;2.8697335720062256;74.39663944084501;-0.04530896832773659;-0.10813315826060091;2.670199708436056
172;2.8841495513916016;74.271221020125;-0.043798669383478706;-0.11608412577976274;2.685111915659853
173;2.8985185623168945;74.412316743435;-0.043798669383478706;-0.11210864202018182;2.6602582369535246
174;2.9129674434661865;74.427994046025;-0.043798669383478706;-0.11210864202018182;2.6627436048241573
175;2.9273521900177;74.67883088746501;-0.043798669383478706;-0.11210864202018182;2.675170444177321
176;2.941706895828247;75.243213780705;-0.043798669383478706;-0.11608412577976274;2.6875972835304855
177;2.956127882003784;75.211859175525;-0.043798669383478706;-0.11210864202018182;2.68262654778922
178;2.970547914505005;74.56125111804;-0.043798669383478706;-0.11608412577976274;2.6602582369535246
179;2.984806776046753;74.051738783865;-0.043798669383478706;-0.11608412577976274;2.6627436048241573
180;2.999159812927246;74.380962138255;-0.04530896832773659;-0.11210864202018182;2.667714340565423
181;3.0135626792907715;74.71018549264501;-0.04228837043922082;-0.11210864202018182;2.6577728690828915
182;3.027914524078369;74.412316743435;-0.043798669383478706;-0.11210864202018182;2.6900826514011182
183;3.042276382446289;74.067416086455;-0.043798669383478706;-0.11608412577976274;2.6875972835304855
184;3.056701183319092;73.62061296264001;-0.043798669383478706;-0.11210864202018182;2.6776558120479543
185;3.0710582733154297;72.80539322796001;-0.043798669383478706;-0.11210864202018182;2.6577728690828915
186;3.0854079723358154;72.70349076112501;-0.043798669383478706;-0.11210864202018182;2.667714340565423
187;3.099824905395508;73.04055276681001;-0.04530896832773659;-0.11210864202018182;2.685111915659853
188;3.114264726638794;73.35409881861;-0.043798669383478706;-0.11608412577976274;2.68262654778922
189;3.128612518310547;72.750522668895;-0.04530896832773659;-0.10813315826060091;2.6925680192717514
190;3.1430535316467285;72.374267406735;-0.043798669383478706;-0.11608412577976274;2.6627436048241573
191;3.157435417175293;72.640781550765;-0.043798669383478706;-0.11210864202018182;2.667714340565423
192;3.1717681884765625;72.985682207745;-0.043798669383478706;-0.11210864202018182;2.6602582369535246
193;3.186378240585327;73.095423325875;-0.043798669383478706;-0.11608412577976274;2.667714340565423
194;3.200834035873413;73.16597118753;-0.04530896832773659;-0.11608412577976274;2.675170444177321
195;3.2152600288391113;73.0562300694;-0.04530896832773659;-0.11210864202018182;2.675170444177321
196;3.2296159267425537;72.36642875544;-0.04228837043922082;-0.11608412577976274;2.66522897269479
197;3.244051933288574;72.060721354935;-0.043798669383478706;-0.11210864202018182;2.6627436048241573
198;3.258406639099121;72.546717735225;-0.043798669383478706;-0.11210864202018182;2.6577728690828915
199;3.2727887630462646;73.11893927976;-0.043798669383478706;-0.11210864202018182;2.6627436048241573
