;Time;Thrust;BEM pressure;N2O pressure
0;0.0;23.826;-0.045521281119;-0.0469897099
1;0.007997512817382812;23.696;-0.045521281119;-0.045521281119
2;0.015219688415527344;23.688;-0.0469897099;-0.0469897099
3;0.022438764572143555;23.689;-0.045521281119;-0.048458138681000004
4;0.029648780822753906;23.691;-0.0469897099;-0.0469897099
5;0.03686690330505371;23.732;-0.0469897099;-0.045521281119
6;0.044126033782958984;23.689;-0.0469897099;-0.0469897099
7;0.051349639892578125;23.689;-0.0469897099;-0.045521281119
8;0.0585629940032959;23.693;-0.0469897099;-0.0469897099
9;0.06577348709106445;23.69;-0.045521281119;-0.0469897099
10;0.07298970222473145;23.692;-0.0469897099;-0.0469897099
11;0.08018755912780762;23.69;-0.045521281119;-0.048458138681000004
12;0.08741569519042969;23.692;-0.0469897099;-0.0469897099
13;0.09462928771972656;23.693;-0.045521281119;-0.045521281119
14;0.10183906555175781;23.693;-0.045521281119;-0.0469897099
15;0.10908031463623047;23.687;-0.0469897099;-0.0469897099
16;0.11630010604858398;23.694;-0.0469897099;-0.0469897099
17;0.12350606918334961;23.685;-0.0469897099;-0.048458138681000004
18;0.13071227073669434;23.693;-0.0469897099;-0.0469897099
19;0.13791799545288086;23.695;-0.045521281119;-0.0469897099
20;0.1451432704925537;23.689;-0.045521281119;-0.0469897099
21;0.15236139297485352;23.685;-0.045521281119;-0.045521281119
22;0.15958261489868164;23.691;-0.045521281119;-0.045521281119
23;0.16679143905639648;23.692;-0.045521281119;-0.045521281119
24;0.17399883270263672;23.694;-0.0469897099;-0.045521281119
25;0.18121123313903809;23.681;-0.045521281119;-0.0469897099
26;0.18842077255249023;23.678;-0.045521281119;-0.0469897099
27;0.1956319808959961;23.672;-0.0469897099;-0.045521281119
28;0.20288300514221191;23.663;-0.0469897099;-0.0469897099
29;0.21009373664855957;23.654;-0.0469897099;-0.0469897099
30;0.21730279922485352;23.646;-0.045521281119;-0.0469897099
31;0.22451186180114746;23.643;-0.045521281119;-0.045521281119
32;0.2317345142364502;23.631;-0.0469897099;-0.045521281119
33;0.2389392852783203;23.614;-0.045521281119;-0.0469897099
34;0.24615097045898438;23.601;-0.045521281119;-0.048458138681000004
35;0.25337934494018555;23.587;-0.0469897099;-0.0469897099
36;0.26060056686401367;23.558;-0.0469897099;-0.0469897099
37;0.26781296730041504;23.536;-0.0469897099;-0.0469897099
38;0.2750225067138672;23.497;-0.0469897099;-0.045521281119
39;0.28228044509887695;23.459;-0.045521281119;-0.0469897099
40;0.28954458236694336;23.419;-0.0469897099;-0.0469897099
41;0.29675912857055664;23.372;-0.0469897099;-0.0469897099
42;0.30400586128234863;23.324;-0.0469897099;-0.0469897099
43;0.31121349334716797;23.265;-0.045521281119;-0.0469897099
44;0.3184213638305664;23.202;-0.0469897099;-0.0469897099
45;0.3256230354309082;23.143;-0.0469897099;-0.0469897099
46;0.3328227996826172;23.058;-0.048458138681000004;-0.045521281119
47;0.3400416374206543;22.976;-0.0469897099;-0.0469897099
48;0.34724974632263184;22.895;-0.0469897099;-0.0469897099
49;0.3544580936431885;22.817;-0.0469897099;-0.0469897099
50;0.36168336868286133;22.744;-0.0469897099;-0.0469897099
51;0.3688979148864746;22.671;-0.0469897099;-0.0469897099
52;0.37610673904418945;22.583000000000002;-0.045521281119;-0.048458138681000004
53;0.38332509994506836;22.507;-0.044052852338;-0.0469897099
54;0.3905341625213623;22.429000000000002;-0.0469897099;-0.048458138681000004
55;0.3977470397949219;22.353;-0.0469897099;-0.0469897099
56;0.4049534797668457;22.264;-0.0469897099;-0.045521281119
57;0.4121580123901367;22.184;-0.045521281119;-0.0469897099
58;0.41936779022216797;22.115000000000002;-0.0469897099;-0.0469897099
59;0.4265785217285156;22.034;-0.0469897099;-0.0469897099
60;0.43378686904907227;21.945;-0.0469897099;-0.0469897099
61;0.4409952163696289;21.848;-0.0469897099;-0.0469897099
62;0.4482142925262451;21.839000000000002;-0.0469897099;-0.0469897099
63;0.45548224449157715;21.715;-0.0469897099;-0.0469897099
64;0.46270132064819336;21.504;-0.0469897099;-0.0469897099
65;0.469912052154541;21.282;-0.045521281119;-0.0469897099
66;0.47719907760620117;21.102;-0.0469897099;-0.045521281119
67;0.4844350814819336;20.97;-0.045521281119;-0.0469897099
68;0.4916651248931885;20.906;-0.0469897099;-0.0469897099
69;0.49887847900390625;20.914;-0.0469897099;-0.0469897099
70;0.5060999393463135;20.881;-0.0469897099;-0.0469897099
71;0.5133068561553955;20.813;-0.045521281119;-0.0469897099
72;0.5205202102661133;20.746;-0.0469897099;-0.0469897099
73;0.5277347564697266;20.625;-0.0469897099;-0.0469897099
74;0.5349454879760742;20.469;-0.0469897099;-0.0469897099
75;0.5421512126922607;20.311;-0.045521281119;-0.045521281119
76;0.5493628978729248;20.188;-0.045521281119;-0.0469897099
77;0.5565664768218994;20.097;-0.0469897099;-0.045521281119
78;0.5637784004211426;20.03;-0.0469897099;-0.045521281119
79;0.570990800857544;20.005;-0.045521281119;-0.0469897099
80;0.5781867504119873;19.999;-0.045521281119;-0.0469897099
81;0.5853922367095947;19.988;-0.044052852338;-0.0469897099
82;0.5926012992858887;19.958000000000002;-0.0469897099;-0.0469897099
83;0.599811315536499;19.923000000000002;-0.045521281119;-0.0469897099
84;0.6070201396942139;19.853;-0.0469897099;-0.045521281119
85;0.6142280101776123;19.771;-0.045521281119;-0.0469897099
86;0.6214449405670166;19.7;-0.0469897099;-0.0469897099
87;0.6286571025848389;19.639;-0.045521281119;-0.0469897099
88;0.6358702182769775;19.588;-0.045521281119;-0.0469897099
89;0.643082857131958;19.562;-0.0469897099;-0.0469897099
90;0.6502962112426758;19.534;-0.0469897099;-0.045521281119
91;0.6575431823730469;19.504;-0.045521281119;-0.0469897099
92;0.6647553443908691;19.479;-0.045521281119;-0.0469897099
93;0.6719772815704346;19.446;-0.0469897099;-0.045521281119
94;0.6791958808898926;19.407;-0.0469897099;-0.0469897099
95;0.6864063739776611;19.354;-0.0469897099;-0.045521281119
96;0.6936197280883789;19.281;-0.0469897099;-0.0469897099
97;0.7008249759674072;19.184;-0.045521281119;-0.0469897099
98;0.7080357074737549;19.189;-0.045521281119;-0.048458138681000004
99;0.7152867317199707;19.186;-0.0469897099;-0.0469897099
100;0.722496509552002;19.191;-0.0469897099;-0.0469897099
101;0.7297039031982422;19.189;-0.0469897099;-0.0469897099
102;0.7369124889373779;19.188;-0.0469897099;-0.0469897099
103;0.7447831630706787;19.187;-0.0469897099;-0.0469897099
104;0.7527337074279785;19.19;-0.0469897099;-0.0469897099
105;0.7607295513153076;19.183;-0.044052852338;-0.0469897099
106;0.7687346935272217;19.186;-0.045521281119;-0.0469897099
107;0.7767374515533447;19.18;-0.048458138681000004;-0.0469897099
108;0.7847425937652588;19.186;-0.045521281119;-0.0469897099
109;0.7927396297454834;19.185;-0.0469897099;-0.0469897099
110;0.8007421493530273;19.187;-0.045521281119;-0.0469897099
111;0.8087434768676758;19.182000000000002;-0.045521281119;-0.0469897099
112;0.8167455196380615;19.186;-0.048458138681000004;-0.0469897099
113;0.8247420787811279;19.184;-0.045521281119;-0.0469897099
114;0.8327131271362305;19.187;-0.045521281119;-0.0469897099
115;0.840721845626831;19.188;-0.0469897099;-0.0469897099
116;0.8487622737884521;19.185;-0.0469897099;-0.0469897099
117;0.8567900657653809;19.187;-0.045521281119;-0.0469897099
118;0.864793062210083;19.188;-0.0469897099;-0.0469897099
119;0.872791051864624;19.188;-0.045521281119;-0.045521281119
120;0.8807852268218994;19.184;-0.0469897099;-0.0469897099
121;0.8887894153594971;19.189;-0.0469897099;-0.0469897099
122;0.8967931270599365;19.188;-0.045521281119;-0.0469897099
123;0.9047954082489014;19.187;-0.045521281119;-0.0469897099
124;0.9127967357635498;19.184;-0.0469897099;-0.0469897099
125;0.9207978248596191;19.182000000000002;-0.0469897099;-0.0469897099
126;0.9288055896759033;19.189;-0.0469897099;-0.0469897099
127;0.9368016719818115;19.192;-0.0469897099;-0.0469897099
128;0.9448010921478271;19.185;-0.0469897099;-0.0469897099
129;0.9528403282165527;19.184;-0.0469897099;-0.0469897099
130;0.9608488082885742;19.187;-0.0469897099;-0.045521281119
131;0.9688525199890137;19.192;-0.0469897099;-0.048458138681000004
132;0.9768626689910889;19.188;-0.045521281119;-0.045521281119
133;0.9849448204040527;19.183;-0.045521281119;-0.0469897099
134;0.9930233955383301;19.191;-0.045521281119;-0.045521281119
135;1.0010409355163574;19.288;-0.0469897099;-0.0469897099
136;1.0092511177062988;19.191;-0.0469897099;-0.0469897099
137;1.017265796661377;19.194;-0.044052852338;-0.0469897099
138;1.026181936264038;19.191;-0.045521281119;-0.0469897099
139;1.0342037677764893;19.184;-0.048458138681000004;-0.045521281119
140;1.0422227382659912;19.182000000000002;-0.0469897099;-0.048458138681000004
141;1.0504355430603027;19.187;-0.0469897099;-0.045521281119
142;1.0584511756896973;19.184;-0.045521281119;-0.0469897099
143;1.0664572715759277;19.184;-0.045521281119;-0.0469897099
144;1.0744562149047852;19.184;-0.0469897099;-0.0469897099
145;1.0824651718139648;19.193;-0.0469897099;-0.0469897099
146;1.0904805660247803;19.182000000000002;-0.0469897099;-0.0469897099
147;1.0984869003295898;19.179000000000002;-0.0469897099;-0.045521281119
148;1.1064906120300293;19.183;-0.045521281119;-0.0469897099
149;1.114504098892212;19.189;-0.0469897099;-0.0469897099
150;1.1225037574768066;19.191;-0.0469897099;-0.0469897099
151;1.130497694015503;19.192;-0.045521281119;-0.0469897099
152;1.1385011672973633;19.189;-0.0469897099;-0.045521281119
153;1.1465189456939697;19.179000000000002;-0.045521281119;-0.0469897099
154;1.1545774936676025;19.188;-0.0469897099;-0.0469897099
155;1.1625909805297852;19.186;-0.0469897099;-0.0469897099
156;1.1705899238586426;19.187;-0.0469897099;-0.0469897099
157;1.178589105606079;19.188;-0.045521281119;-0.045521281119
158;1.1865942478179932;19.187;-0.045521281119;-0.045521281119
159;1.1945972442626953;19.187;-0.0469897099;-0.0469897099
160;1.2026007175445557;19.186;-0.045521281119;-0.0469897099
161;1.210601568222046;19.188;-0.0469897099;-0.0469897099
162;1.2186031341552734;19.189;-0.045521281119;-0.0469897099
163;1.2266080379486084;19.186;-0.0469897099;-0.0469897099
164;1.2346112728118896;19.188;-0.0469897099;-0.0469897099
165;1.2426176071166992;19.186;-0.045521281119;-0.0469897099
166;1.2506566047668457;19.189;-0.0469897099;-0.0469897099
167;1.2586565017700195;19.189;-0.045521281119;-0.0469897099
168;1.2666618824005127;19.188;-0.045521281119;-0.0469897099
169;1.2746596336364746;19.194;-0.0469897099;-0.0469897099
170;1.2827179431915283;19.19;-0.0469897099;-0.045521281119
171;1.2907357215881348;19.185;-0.0469897099;-0.0469897099
172;1.298743724822998;19.193;-0.045521281119;-0.045521281119
173;1.3067631721496582;19.192;-0.045521281119;-0.0469897099
174;1.3147733211517334;19.192;-0.0469897099;-0.0469897099
175;1.3227763175964355;19.192;-0.0469897099;-0.0469897099
176;1.3307435512542725;19.191;-0.0469897099;-0.0469897099
177;1.3387525081634521;19.19;-0.045521281119;-0.0469897099
178;1.3467583656311035;19.187;-0.0469897099;-0.0469897099
179;1.3548040390014648;19.19;-0.0469897099;-0.045521281119
180;1.3627984523773193;19.186;-0.0469897099;-0.045521281119
181;1.3708291053771973;19.184;-0.0469897099;-0.0469897099
182;1.378826379776001;19.185;-0.0469897099;-0.045521281119
183;1.3868303298950195;19.187;-0.0469897099;-0.0469897099
184;1.3948309421539307;19.183;-0.045521281119;-0.045521281119
185;1.4028334617614746;19.187;-0.0469897099;-0.0469897099
186;1.4108266830444336;19.19;-0.045521281119;-0.0469897099
187;1.4188284873962402;19.181;-0.045521281119;-0.045521281119
188;1.4268245697021484;19.188;-0.0469897099;-0.0469897099
189;1.4348323345184326;19.189;-0.045521281119;-0.048458138681000004
190;1.442842960357666;19.184;-0.045521281119;-0.048458138681000004
191;1.450883388519287;19.187;-0.0469897099;-0.0469897099
192;1.4589757919311523;19.189;-0.045521281119;-0.0469897099
193;1.4670026302337646;19.188;-0.045521281119;-0.045521281119
194;1.475064754486084;19.192;-0.0469897099;-0.045521281119
195;1.4830949306488037;19.187;-0.0469897099;-0.0469897099
196;1.4910943508148193;19.184;-0.045521281119;-0.0469897099
197;1.4991061687469482;19.189;-0.045521281119;-0.0469897099
198;1.5071089267730713;19.186;-0.0469897099;-0.045521281119
199;1.5151140689849854;19.184;-0.0469897099;-0.048458138681000004
200;1.523122787475586;19.19;-0.0469897099;-0.0469897099
201;1.5311195850372314;19.185;-0.0469897099;-0.045521281119
202;1.5391185283660889;19.183;-0.045521281119;-0.045521281119
203;1.5471174716949463;19.182000000000002;-0.045521281119;-0.0469897099
204;1.5551526546478271;19.192;-0.0469897099;-0.0469897099
205;1.5631871223449707;19.187;-0.0469897099;-0.0469897099
206;1.5711896419525146;19.187;-0.045521281119;-0.0469897099
207;1.5791571140289307;19.187;-0.0469897099;-0.0469897099
208;1.5871844291687012;19.177;-0.045521281119;-0.0469897099
209;1.5952093601226807;19.19;-0.0469897099;-0.045521281119
210;1.6032426357269287;19.183;-0.0469897099;-0.0469897099
211;1.6112544536590576;19.19;-0.045521281119;-0.048458138681000004
212;1.6192607879638672;19.189;-0.045521281119;-0.045521281119
213;1.6283986568450928;19.184;-0.045521281119;-0.0469897099
214;1.6364073753356934;19.187;-0.0469897099;-0.0469897099
215;1.6445012092590332;19.186;-0.0469897099;-0.0469897099
216;1.6525657176971436;19.188;-0.0469897099;-0.0469897099
217;1.6605799198150635;19.18;-0.0469897099;-0.0469897099
218;1.6685798168182373;19.185;-0.0469897099;-0.0469897099
219;1.676569938659668;19.189;-0.0469897099;-0.048458138681000004
220;1.6846179962158203;19.191;-0.045521281119;-0.045521281119
221;1.6926233768463135;19.186;-0.0469897099;-0.0469897099
222;1.700624942779541;19.186;-0.045521281119;-0.0469897099
223;1.7086281776428223;19.184;-0.045521281119;-0.045521281119
224;1.716627836227417;19.183;-0.0469897099;-0.0469897099
225;1.7246294021606445;19.183;-0.0469897099;-0.045521281119
226;1.732630968093872;19.181;-0.045521281119;-0.045521281119
227;1.7406339645385742;19.188;-0.0469897099;-0.0469897099
228;1.7486371994018555;19.18;-0.048458138681000004;-0.045521281119
229;1.756688117980957;19.187;-0.045521281119;-0.0469897099
230;1.764693260192871;19.184;-0.045521281119;-0.045521281119
231;1.7726936340332031;19.185;-0.045521281119;-0.0469897099
232;1.780689001083374;19.186;-0.0469897099;-0.0469897099
233;1.7886962890625;19.19;-0.045521281119;-0.0469897099
234;1.7967004776000977;19.183;-0.045521281119;-0.0469897099
235;1.8047032356262207;19.182000000000002;-0.045521281119;-0.0469897099
236;1.8126940727233887;19.188;-0.045521281119;-0.0469897099
237;1.8206872940063477;19.189;-0.0469897099;-0.045521281119
238;1.8286571502685547;19.189;-0.045521281119;-0.048458138681000004
239;1.836658239364624;19.188;-0.0469897099;-0.0469897099
240;1.8446645736694336;19.189;-0.048458138681000004;-0.0469897099
241;1.8527047634124756;19.185;-0.045521281119;-0.045521281119
242;1.8607168197631836;19.186;-0.0469897099;-0.048458138681000004
243;1.868720531463623;19.184;-0.045521281119;-0.0469897099
244;1.8767271041870117;19.189;-0.045521281119;-0.045521281119
245;1.8847274780273438;19.19;-0.0469897099;-0.0469897099
246;1.8927292823791504;19.187;-0.045521281119;-0.0469897099
247;1.9007325172424316;19.185;-0.045521281119;-0.0469897099
248;1.9087443351745605;19.189;-0.0469897099;-0.045521281119
249;1.9167470932006836;19.191;-0.045521281119;-0.0469897099
250;1.9247512817382812;19.186;-0.0469897099;-0.045521281119
251;1.9327545166015625;19.189;-0.045521281119;-0.048458138681000004
252;1.9407625198364258;19.186;-0.0469897099;-0.0469897099
253;1.9487650394439697;19.184;-0.045521281119;-0.0469897099
254;1.9568095207214355;19.188;-0.0469897099;-0.0469897099
255;1.964812994003296;19.191;-0.045521281119;-0.0469897099
256;1.972815752029419;19.188;-0.0469897099;-0.0469897099
257;1.980816125869751;19.19;-0.0469897099;-0.045521281119
258;1.988828420639038;19.185;-0.045521281119;-0.0469897099
259;1.9968445301055908;19.187;-0.045521281119;-0.0469897099
260;2.004946708679199;19.183;-0.045521281119;-0.0469897099
261;2.0130059719085693;19.187;-0.045521281119;-0.0469897099
262;2.0210049152374268;19.184;-0.0469897099;-0.0469897099
263;2.0290133953094482;19.186;-0.0469897099;-0.0469897099
264;2.037006139755249;19.185;-0.045521281119;-0.0469897099
265;2.04506516456604;19.185;-0.045521281119;-0.0469897099
266;2.0530879497528076;19.186;-0.045521281119;-0.0469897099
267;2.061128616333008;19.184;-0.045521281119;-0.0469897099
268;2.0691351890563965;19.192;-0.045521281119;-0.0469897099
269;2.0771405696868896;19.184;-0.0469897099;-0.0469897099
270;2.0851266384124756;19.189;-0.045521281119;-0.045521281119
271;2.093139410018921;19.188;-0.0469897099;-0.0469897099
272;2.101134777069092;19.186;-0.045521281119;-0.0469897099
273;2.109135627746582;19.188;-0.0469897099;-0.0469897099
274;2.117142915725708;19.188;-0.045521281119;-0.0469897099
275;2.125145435333252;19.178;-0.0469897099;-0.048458138681000004
276;2.1331536769866943;19.181;-0.0469897099;-0.0469897099
277;2.1411569118499756;19.19;-0.045521281119;-0.0469897099
278;2.1491782665252686;19.183;-0.048458138681000004;-0.0469897099
279;2.1572113037109375;19.182000000000002;-0.045521281119;-0.0469897099
280;2.1652398109436035;19.191;-0.0469897099;-0.0469897099
281;2.1732566356658936;19.184;-0.045521281119;-0.045521281119
282;2.1812660694122314;19.185;-0.045521281119;-0.0469897099
283;2.1892683506011963;19.186;-0.045521281119;-0.0469897099
284;2.197277069091797;19.185;-0.0469897099;-0.045521281119
285;2.205289602279663;19.185;-0.045521281119;-0.0469897099
286;2.21329665184021;19.178;-0.0469897099;-0.045521281119
287;2.2213034629821777;19.193;-0.0469897099;-0.0469897099
288;2.2293033599853516;19.188;-0.045521281119;-0.048458138681000004
289;2.2373132705688477;19.188;-0.0469897099;-0.0469897099
290;2.2453155517578125;19.181;-0.045521281119;-0.0469897099
291;2.25331974029541;19.182000000000002;-0.0469897099;-0.045521281119
292;2.2613680362701416;19.19;-0.0469897099;-0.045521281119
293;2.2693686485290527;19.185;-0.0469897099;-0.0469897099
294;2.277367115020752;19.19;-0.045521281119;-0.0469897099
295;2.2854206562042236;19.188;-0.045521281119;-0.048458138681000004
296;2.2934353351593018;19.181;-0.048458138681000004;-0.045521281119
297;2.301476240158081;19.183;-0.0469897099;-0.0469897099
298;2.30948805809021;19.189;-0.045521281119;-0.045521281119
299;2.317495822906494;19.187;-0.045521281119;-0.0469897099
300;2.3254799842834473;19.179000000000002;-0.045521281119;-0.0469897099
301;2.333453416824341;19.186;-0.045521281119;-0.0469897099
302;2.341454267501831;19.19;-0.0469897099;-0.0469897099
303;2.349463701248169;19.184;-0.045521281119;-0.0469897099
304;2.3575079441070557;19.185;-0.045521281119;-0.0469897099
305;2.365507125854492;19.195;-0.045521281119;-0.0469897099
306;2.3735036849975586;19.185;-0.0469897099;-0.0469897099
307;2.3815016746520996;19.183;-0.0469897099;-0.0469897099
308;2.3895087242126465;19.18;-0.0469897099;-0.045521281119
309;2.3975822925567627;19.192;-0.0469897099;-0.0469897099
310;2.40570068359375;19.183;-0.045521281119;-0.045521281119
311;2.4137017726898193;19.188;-0.048458138681000004;-0.045521281119
312;2.4217076301574707;19.19;-0.0469897099;-0.0469897099
313;2.4297215938568115;19.186;-0.0469897099;-0.0469897099
314;2.4377214908599854;19.185;-0.045521281119;-0.0469897099
315;2.4457974433898926;19.184;-0.0469897099;-0.0469897099
316;2.4538826942443848;19.184;-0.0469897099;-0.0469897099
317;2.46193790435791;19.183;-0.0469897099;-0.0469897099
318;2.469951868057251;19.187;-0.045521281119;-0.0469897099
319;2.477961301803589;19.187;-0.0469897099;-0.0469897099
320;2.4859864711761475;19.184;-0.045521281119;-0.048458138681000004
321;2.4939985275268555;19.186;-0.0469897099;-0.048458138681000004
322;2.5020105838775635;19.19;-0.0469897099;-0.0469897099
323;2.5111353397369385;19.188;-0.0469897099;-0.0469897099
324;2.5192461013793945;19.184;-0.0469897099;-0.0469897099
325;2.5279386043548584;19.184;-0.045521281119;-0.048458138681000004
326;2.5359621047973633;19.185;-0.045521281119;-0.0469897099
327;2.543975591659546;19.191;-0.045521281119;-0.0469897099
328;2.5519871711730957;19.187;-0.045521281119;-0.0469897099
329;2.560002565383911;19.183;-0.0469897099;-0.0469897099
330;2.568002700805664;19.189;-0.0469897099;-0.0469897099
