;Time;Thrust;BEM pressure;N2O pressure
0;0.0;612;51;31940
1;0.008078813552856445;612;51;31936
2;0.015385627746582031;611;50;31944
3;0.022695302963256836;611;29;31952
4;0.029989004135131836;611;51;31942
5;0.03728127479553223;611;51;31942
6;0.04458189010620117;612;52;31954
7;0.05187058448791504;611;51;31956
8;0.05918455123901367;611;51;31939
9;0.0664827823638916;611;30;31939
10;0.07377243041992188;612;52;31953
11;0.08106493949890137;612;51;31948
12;0.08835601806640625;611;55;31940
13;0.09564876556396484;611;47;31951
14;0.10308003425598145;610;50;31948
15;0.11037397384643555;612;49;31939
16;0.11773800849914551;611;53;31929
17;0.1250321865081787;612;72;31936
18;0.1323244571685791;612;51;31946
19;0.13961529731750488;612;30;31943
20;0.14691734313964844;611;50;31955
21;0.15420842170715332;612;27;31949
22;0.1614983081817627;612;33;31948
23;0.16878819465637207;611;51;31949
24;0.17607879638671875;611;52;31959
25;0.18337035179138184;611;50;31941
26;0.19080138206481934;611;51;31950
27;0.198106050491333;611;33;31952
28;0.2053978443145752;612;33;31957
29;0.2126927375793457;612;51;31956
30;0.21998381614685059;611;34;31940
31;0.22727704048156738;611;50;31941
32;0.23458194732666016;612;51;31956
33;0.24187207221984863;612;50;31940
34;0.24916553497314453;611;37;31950
35;0.25646162033081055;612;50;31961
36;0.2637670040130615;611;50;31946
37;0.2710609436035156;612;51;31930
38;0.27835655212402344;611;40;31934
39;0.2856447696685791;613;28;31942
40;0.29293274879455566;611;50;31947
41;0.30022239685058594;611;51;31958
42;0.3075129985809326;611;27;31938
43;0.3148033618927002;611;51;31948
44;0.3220953941345215;611;51;31953
45;0.3293912410736084;611;42;31939
46;0.336683988571167;611;50;31945
47;0.3439764976501465;611;29;31935
48;0.3512697219848633;612;36;31947
49;0.35856056213378906;611;44;31952
50;0.36591267585754395;612;50;31946
51;0.37320399284362793;611;58;31954
52;0.3804945945739746;611;51;31951
53;0.38779616355895996;611;44;31949
54;0.39508819580078125;611;51;31949
55;0.4023771286010742;612;51;31950
56;0.4100067615509033;612;41;31949
57;0.4173917770385742;611;52;31937
58;0.42468881607055664;612;41;31958
59;0.43198347091674805;610;62;31959
60;0.43927645683288574;611;39;31949
61;0.4465677738189697;612;50;31949
62;0.45388126373291016;610;39;31960
63;0.46117353439331055;612;52;31940
64;0.4684624671936035;611;52;31946
65;0.4757540225982666;612;51;31953
66;0.4830946922302246;611;42;31935
67;0.49039387702941895;611;43;31946
68;0.4977536201477051;612;28;31934
69;0.50504469871521;611;41;31946
70;0.5123496055603027;611;55;31947
71;0.5196793079376221;611;52;31943
72;0.5269813537597656;611;29;31951
73;0.534271240234375;611;52;31941
74;0.5415589809417725;611;51;31952
75;0.5488488674163818;611;50;31956
76;0.5561408996582031;610;46;31947
77;0.5634331703186035;612;50;31941
78;0.5707731246948242;611;51;31944
79;0.5780644416809082;612;51;31947
80;0.5853562355041504;610;51;31948
81;0.592644453048706;610;47;31950
82;0.5999329090118408;611;50;31955
83;0.6072597503662109;612;54;31944
84;0.6145496368408203;611;50;31947
85;0.6218392848968506;611;27;31943
86;0.6291406154632568;610;28;31939
87;0.6364314556121826;611;72;31946
88;0.6437203884124756;612;29;31949
89;0.6510095596313477;612;52;31939
90;0.6583459377288818;611;28;31951
91;0.6656372547149658;612;50;31949
92;0.672924280166626;612;50;31936
93;0.6803624629974365;611;51;31947
94;0.6877329349517822;611;28;31943
95;0.6950287818908691;611;51;31946
96;0.7023768424987793;612;36;31942
97;0.7102913856506348;611;52;31960
98;0.7182772159576416;611;33;31938
99;0.726250410079956;611;28;31953
100;0.734217643737793;612;51;31956
101;0.742182731628418;611;27;31952
102;0.7501506805419922;611;52;31940
103;0.759223222732544;611;70;31958
104;0.7671983242034912;611;52;31949
105;0.775169849395752;611;51;31952
106;0.7832362651824951;611;51;31951
107;0.7912626266479492;611;27;31947
108;0.7992279529571533;611;38;31941
109;0.8072419166564941;611;50;31932
110;0.81520676612854;611;51;31950
111;0.8232333660125732;612;50;31938
112;0.8312592506408691;611;73;31941
113;0.839224100112915;611;51;31952
114;0.8471956253051758;612;27;31951
115;0.8553943634033203;611;51;31945
116;0.8633828163146973;611;51;31961
117;0.8713512420654297;611;50;31940
118;0.8793215751647949;612;57;31960
119;0.8872931003570557;612;32;31954
120;0.895256757736206;612;49;31955
121;0.9033620357513428;611;55;31941
122;0.9113459587097168;612;51;31952
123;0.9193136692047119;612;50;31942
124;0.9272818565368652;611;28;31934
125;0.9352493286132812;611;41;31948
126;0.9432952404022217;611;28;31945
127;0.9513232707977295;611;40;31936
128;0.9592897891998291;612;51;31953
129;0.967259407043457;612;51;31948
130;0.9752295017242432;611;51;31951
131;0.983262300491333;611;50;31956
132;0.9912869930267334;611;51;31947
133;0.9992501735687256;611;31;31946
134;1.0072603225708008;612;45;31969
135;1.0154335498809814;611;55;32033
136;1.0234003067016602;612;68;31981
137;1.0313665866851807;611;67;31989
138;1.0393333435058594;611;68;31982
139;1.0472979545593262;611;69;31988
140;1.0553326606750488;612;93;31984
141;1.063305377960205;611;93;31983
142;1.0713262557983398;611;92;31991
143;1.0792977809906006;611;69;31993
144;1.087263584136963;611;93;32003
145;1.0952279567718506;611;92;31983
146;1.1032733917236328;611;79;31988
147;1.1113600730895996;612;93;31997
148;1.1193335056304932;612;97;31986
149;1.127323865890503;611;70;31988
150;1.1353578567504883;612;92;31987
151;1.143336534500122;611;93;31983
152;1.1513636112213135;612;92;31981
153;1.1593379974365234;611;92;31986
154;1.1673064231872559;611;92;31979
155;1.1753358840942383;612;92;31988
156;1.1833126544952393;611;70;31983
157;1.1914706230163574;611;92;31989
158;1.199465036392212;611;71;31979
159;1.207442283630371;611;93;31971
160;1.2154200077056885;611;91;31980
161;1.2233953475952148;611;79;31963
162;1.2313783168792725;611;116;31968
163;1.2393481731414795;611;116;31994
164;1.2473185062408447;612;89;31977
165;1.2553653717041016;611;92;31968
166;1.2633335590362549;611;92;31987
167;1.2713611125946045;611;93;31961
168;1.2793300151824951;611;93;31967
169;1.2873003482818604;611;92;31985
170;1.2953250408172607;611;104;31987
171;1.303299903869629;611;92;31967
172;1.3113656044006348;611;71;31976
173;1.3193562030792236;612;94;31963
174;1.327329158782959;610;79;31978
175;1.3353722095489502;611;93;31969
176;1.3433465957641602;612;92;31970
177;1.3513762950897217;611;92;31955
178;1.3593475818634033;612;92;31964
179;1.3673386573791504;611;91;31983
180;1.3753342628479004;611;93;31965
181;1.3833096027374268;611;92;31967
182;1.3913519382476807;610;91;31976
183;1.3993237018585205;611;83;31964
184;1.4073290824890137;612;92;31971
185;1.415356159210205;612;92;31977
186;1.4233298301696777;611;70;31965
187;1.4313576221466064;612;94;31975
188;1.4393327236175537;611;68;31962
189;1.4473085403442383;611;92;31959
190;1.4553329944610596;611;69;31968
191;1.4633021354675293;611;92;31965
192;1.4713528156280518;611;93;31965
193;1.4793241024017334;611;92;31963
194;1.487351655960083;611;73;31957
195;1.4953482151031494;611;70;31977
196;1.5033183097839355;611;93;31970
197;1.5113914012908936;612;92;31964
198;1.519361972808838;611;84;31971
199;1.5274174213409424;612;93;31959
200;1.5353960990905762;611;82;31958
201;1.5433738231658936;612;92;31959
202;1.5513463020324707;611;91;31949
203;1.5593242645263672;611;93;31955
204;1.5672929286956787;612;93;31963
205;1.5753579139709473;611;70;31969
206;1.583331823348999;612;93;31964
207;1.5913565158843994;611;92;31964
208;1.5993239879608154;612;73;31972
209;1.6073012351989746;611;92;31946
210;1.6153676509857178;611;91;31950
211;1.6233415603637695;612;87;31958
212;1.6313672065734863;612;93;31953
213;1.6404402256011963;611;92;31959
214;1.6484184265136719;611;91;31962
215;1.6563847064971924;611;93;31958
216;1.664353847503662;612;85;31960
217;1.6723239421844482;612;69;31961
218;1.6802923679351807;610;105;31961
219;1.6882562637329102;612;69;31969
220;1.6962954998016357;610;92;31952
221;1.7042620182037354;612;93;31961
222;1.7122876644134521;611;92;31962
223;1.7202579975128174;611;92;31968
224;1.7282273769378662;611;75;31955
225;1.7361948490142822;612;74;31947
226;1.744164228439331;612;93;31962
227;1.752126693725586;611;93;31953
228;1.7601206302642822;611;93;31949
229;1.7681372165679932;612;93;31958
230;1.776120901107788;612;70;31961
231;1.7840864658355713;611;93;31953
232;1.792053461074829;611;70;31948
233;1.8001065254211426;612;83;31951
234;1.8080775737762451;612;93;31955
235;1.8160898685455322;611;77;31951
236;1.8240625858306885;612;93;31955
237;1.8320348262786865;611;93;31957
238;1.840064287185669;611;70;31949
239;1.848041296005249;610;90;31959
240;1.8560655117034912;612;85;31955
241;1.864030122756958;612;70;31955
242;1.8719990253448486;611;93;31956
243;1.8799703121185303;612;92;31939
244;1.887995719909668;612;69;31946
245;1.8960177898406982;611;93;31955
246;1.9039902687072754;612;78;31946
247;1.9123363494873047;612;92;31943
248;1.920421838760376;611;70;31951
249;1.9284021854400635;612;92;31950
250;1.9363749027252197;611;92;31949
251;1.9443440437316895;611;69;31954
252;1.952315092086792;611;79;31944
253;1.960291862487793;612;92;31953
254;1.9682598114013672;611;93;31947
255;1.9762258529663086;612;89;31952
256;1.9841945171356201;611;92;31942
257;1.9921619892120361;612;92;31954
258;2.0001285076141357;612;69;31951
259;2.0081138610839844;612;104;31957
260;2.0161285400390625;611;71;31947
261;2.024106025695801;612;82;31937
262;2.0320847034454346;611;93;31939
263;2.04006290435791;612;86;31949
264;2.048039197921753;612;92;31957
265;2.056145191192627;611;76;31942
266;2.064119338989258;611;74;31936
267;2.072094202041626;612;92;31945
268;2.080068588256836;611;86;31929
269;2.088045835494995;612;92;31948
270;2.0960729122161865;612;91;31936
271;2.1040680408477783;611;92;31936
272;2.1120784282684326;612;93;31941
273;2.1200568675994873;612;92;31941
274;2.1280312538146973;611;103;31927
275;2.1360652446746826;611;115;31950
276;2.144036054611206;611;69;31934
277;2.152010440826416;612;92;31936
278;2.1599807739257812;612;92;31938
279;2.168008804321289;613;88;31936
280;2.1760332584381104;612;69;31952
281;2.184002637863159;612;77;31939
282;2.192110776901245;611;92;31938
283;2.200103282928467;611;109;31937
284;2.2080776691436768;611;93;31943
285;2.216094732284546;612;79;31936
286;2.224062204360962;612;92;31936
287;2.232034921646118;611;93;31936
288;2.2400753498077393;611;69;31929
289;2.2480475902557373;611;93;31944
290;2.2560665607452393;612;94;31934
291;2.264036178588867;611;94;31927
292;2.2720072269439697;611;92;31932
293;2.27998685836792;611;92;31934
294;2.288011312484741;612;93;31936
295;2.296034812927246;612;93;31924
296;2.3040053844451904;610;92;31934
297;2.3119781017303467;612;92;31940
298;2.3199877738952637;612;69;31930
299;2.3280255794525146;612;70;31933
300;2.3360676765441895;612;92;31933
301;2.344038486480713;611;92;31925
302;2.3520100116729736;612;95;31939
303;2.3599817752838135;611;93;31930
304;2.3680038452148438;611;92;31922
305;2.376025676727295;612;69;31948
306;2.383995532989502;610;87;31941
307;2.3919718265533447;611;93;31930
308;2.3999385833740234;611;92;31919
309;2.4079713821411133;611;92;31938
310;2.4160349369049072;612;93;31918
311;2.4240026473999023;611;92;31924
312;2.431981086730957;612;92;31928
313;2.439951181411743;612;81;31930
314;2.4479804039001465;611;92;31921
315;2.456033229827881;611;81;31931
316;2.4640088081359863;611;93;31925
317;2.4719760417938232;611;93;31926
318;2.4799487590789795;611;70;31932
319;2.4880497455596924;611;78;31930
320;2.496055841445923;611;92;31929
321;2.504023313522339;611;87;31932
322;2.5119881629943848;611;70;31928
323;2.5210700035095215;612;93;31927
324;2.529073715209961;611;92;31927
325;2.537043809890747;612;71;31921
326;2.545011281967163;612;87;31947
327;2.552978038787842;611;93;31933
328;2.560946464538574;612;92;31927
329;2.568911075592041;611;93;31926
330;2.576878070831299;612;92;31928
331;2.584847927093506;612;93;31921
332;2.592811107635498;612;69;31918
333;2.600776433944702;612;92;31924
334;2.608748197555542;611;70;31938
335;2.616755247116089;612;87;31924
336;2.6247336864471436;612;92;31930
337;2.6327035427093506;611;91;31936
338;2.64067006111145;612;92;31925
339;2.648710012435913;612;92;31930
340;2.6566810607910156;612;71;31938
341;2.6646482944488525;612;91;31926
342;2.6726157665252686;611;92;31947
343;2.680647134780884;612;94;31923
344;2.6886792182922363;611;93;31916
345;2.6966495513916016;611;93;31920
346;2.7046196460723877;612;92;31924
347;2.7125918865203857;612;70;31923
348;2.720676898956299;611;87;31924
349;2.7287042140960693;612;95;31924
350;2.7366740703582764;612;94;31924
351;2.7446398735046387;611;93;31924
352;2.752612590789795;611;93;31922
353;2.760638475418091;612;92;31928
354;2.7686827182769775;612;93;31924
355;2.776660203933716;612;102;31928
356;2.7846312522888184;612;93;31930
357;2.7926039695739746;612;93;31924
358;2.800642490386963;612;93;31911
359;2.808668613433838;611;70;31919
360;2.816636085510254;612;92;31918
361;2.824647903442383;612;92;31929
362;2.8326215744018555;611;71;31919
363;2.840651035308838;611;87;31922
364;2.848670721054077;612;93;31928
365;2.8566434383392334;611;92;31925
366;2.8646092414855957;612;92;31904
367;2.8725788593292236;611;69;31920
368;2.8806097507476807;612;92;31918
369;2.888681411743164;611;69;31918
370;2.896651029586792;611;93;31917
371;2.904622793197632;612;92;31918
372;2.912590980529785;612;93;31925
373;2.9206600189208984;612;93;31924
374;2.9286916255950928;612;79;31918
375;2.936671733856201;612;92;31925
376;2.944647789001465;611;93;31925
377;2.9526190757751465;612;94;31907
378;2.96065092086792;612;92;31913
379;2.9686765670776367;611;74;31923
380;2.9766476154327393;611;91;31919
381;2.98462176322937;611;93;31920
382;2.9925920963287354;612;93;31923
383;3.000621795654297;611;92;31913
384;3.008652448654175;612;92;31923
385;3.01662278175354;612;92;31923
386;3.0245895385742188;611;70;31923
387;3.032562494277954;612;92;31902
388;3.0405917167663574;612;92;31911
389;3.0486326217651367;611;100;31909
390;3.0566060543060303;611;92;31909
391;3.0645763874053955;612;93;31928
392;3.07254958152771;613;91;31909
393;3.080587387084961;612;91;31916
394;3.0886173248291016;612;87;31906
395;3.0965864658355713;612;92;31912
396;3.104578733444214;612;92;31915
397;3.112545967102051;612;92;31917
398;3.1206247806549072;611;91;31914
399;3.128667116165161;612;93;31908
400;3.136641263961792;612;103;31915
401;3.1446051597595215;611;93;31922
402;3.152575969696045;612;92;31917
403;3.160609245300293;612;70;31908
404;3.168639659881592;611;92;31912
405;3.1766083240509033;611;92;31912
406;3.1845786571502686;612;97;31927
407;3.1927201747894287;612;92;31924
408;3.200707197189331;611;88;31914
409;3.2086868286132812;612;88;31904
410;3.2166643142700195;612;91;31921
411;3.224675178527832;612;87;31925
412;3.2327094078063965;612;92;31907
413;3.2406816482543945;611;69;31913
414;3.2487125396728516;612;93;31902
415;3.2567038536071777;612;70;31908
416;3.26466965675354;613;93;31917
417;3.2726454734802246;612;71;31911
418;3.2806220054626465;611;69;31912
419;3.28865385055542;612;78;31906
420;3.296621561050415;612;91;31909
421;3.3045904636383057;612;93;31921
422;3.312560558319092;612;92;31914
423;3.3205883502960205;612;93;31913
424;3.32865309715271;611;93;31914
425;3.336651086807251;612;92;31918
426;3.344618797302246;612;79;31901
427;3.352592945098877;612;93;31908
428;3.3606326580047607;612;103;31904
429;3.3686647415161133;612;92;31912
430;3.376654624938965;612;81;31919
431;3.384626626968384;612;69;31909
432;3.3925952911376953;612;83;31908
433;3.4006309509277344;612;86;31907
434;3.409788131713867;611;94;31904
435;3.418203353881836;612;93;31915
436;3.426239013671875;612;92;31898
437;3.4342093467712402;612;91;31903
438;3.4421815872192383;612;94;31929
439;3.4501545429229736;612;93;31916
440;3.458124876022339;612;92;31916
441;3.466093063354492;612;70;31911
442;3.4740660190582275;612;92;31917
443;3.4820408821105957;612;81;31909
444;3.490156650543213;611;70;31908
445;3.498136520385742;611;91;31905
446;3.5061089992523193;612;116;31902
447;3.5140819549560547;612;107;31915
448;3.5220508575439453;612;92;31910
449;3.53006911277771;611;92;31901
450;3.5380420684814453;613;93;31916
451;3.5460736751556396;612;93;31908
452;3.554049253463745;611;93;31890
453;3.562023162841797;611;115;31918
454;3.570002555847168;611;83;31894
455;3.577981948852539;612;92;31914
456;3.5860133171081543;612;93;31911
457;3.5939836502075195;611;92;31911
458;3.6019575595855713;612;92;31903
459;3.60992693901062;612;115;31904
460;3.617969274520874;612;93;31907
461;3.626032590866089;611;92;31906
462;3.6340088844299316;613;86;31912
463;3.6419849395751953;612;92;31913
464;3.6499547958374023;612;93;31911
465;3.6579833030700684;613;92;31924
466;3.6660096645355225;611;93;31901
467;3.6739823818206787;612;93;31906
468;3.681957244873047;612;92;31898
469;3.6899335384368896;612;104;31910
470;3.6979756355285645;613;69;31911
471;3.70601224899292;612;92;31909
472;3.713991403579712;612;92;31896
473;3.7219738960266113;611;93;31890
474;3.7299935817718506;612;92;31907
475;3.737975597381592;612;101;31911
476;3.74601149559021;611;93;31909
477;3.753986358642578;612;93;31905
478;3.7619576454162598;612;74;31917
479;3.76993727684021;612;91;31905
480;3.7779741287231445;610;93;31900
481;3.786006212234497;613;92;31892
482;3.793980836868286;612;70;31912
483;3.8019511699676514;612;69;31895
484;3.8099255561828613;612;94;31903
485;3.817960262298584;611;92;31911
486;3.8259940147399902;612;92;31891
487;3.8340094089508057;612;94;31894
488;3.841977834701538;611;92;31890
489;3.8499629497528076;611;93;31899
490;3.8580000400543213;611;78;31911
491;3.8660285472869873;611;70;31893
492;3.8740031719207764;612;92;31908
493;3.881976366043091;612;73;31903
494;3.889946460723877;612;95;31909
495;3.897986650466919;612;93;31906
496;3.906014919281006;611;70;31892
497;3.9139909744262695;612;93;31903
498;3.9219610691070557;612;92;31897
499;3.92996883392334;612;93;31895
500;3.9380366802215576;613;91;31909
501;3.946059465408325;611;93;31907
502;3.954036235809326;612;93;31899
503;3.962008237838745;612;93;31887
504;3.969982385635376;611;93;31900
505;3.9780054092407227;611;93;31894
506;3.986032485961914;612;92;31897
507;3.9940013885498047;613;87;31891
508;4.001973867416382;611;70;31903
509;4.009948253631592;612;92;31889
510;4.0179784297943115;613;92;31903
511;4.026005029678345;612;92;31903
512;4.034022331237793;611;93;31899
513;4.041996002197266;612;94;31888
514;4.04996657371521;612;81;31903
515;4.057995080947876;611;92;31901
516;4.066023111343384;612;93;31918
517;4.0739970207214355;611;93;31898
518;4.081970930099487;611;93;31899
519;4.089957237243652;611;93;31904
520;4.097992181777954;611;115;31902
521;4.106154918670654;612;116;31895
522;4.1141321659088135;612;93;31896
523;4.1221044063568115;612;112;31899
524;4.130121946334839;611;86;31898
525;4.138118028640747;612;112;31894
526;4.1460981369018555;611;72;31909
527;4.154068470001221;612;93;31903
528;4.162042140960693;612;92;31902
529;4.1700828075408936;612;93;31902
530;4.178056955337524;613;94;31892
531;4.186032295227051;613;105;31897
532;4.1940836906433105;612;93;31902
533;4.202063798904419;612;104;31899
534;4.210101366043091;611;116;31896
535;4.2181103229522705;612;105;31896
536;4.226092576980591;611;91;31898
537;4.234104633331299;611;93;31902
538;4.242077112197876;611;70;31894
539;4.250057220458984;613;70;31886
540;4.258045673370361;613;93;31888
541;4.266077995300293;612;71;31911
542;4.274051189422607;612;93;31892
543;4.282023191452026;613;92;31886
544;4.291186571121216;612;77;31897
545;4.2991650104522705;613;94;31887
546;4.30713415145874;612;92;31893
547;4.315099477767944;613;74;31896
548;4.323076009750366;612;93;31896
549;4.331084728240967;612;84;31885
550;4.339064598083496;612;71;31890
551;4.347031116485596;613;81;31904
552;4.354998826980591;613;94;31897
553;4.362967014312744;611;92;31885
554;4.370931625366211;611;92;31903
555;4.378900766372681;612;92;31916
556;4.386876106262207;611;92;31899
557;4.394846439361572;612;92;31883
558;4.402812957763672;612;69;31898
559;4.410783767700195;611;92;31893
560;4.418764591217041;612;93;31881
561;4.4267356395721436;613;92;31897
