;Time;Thrust;BEM pressure;N2O pressure
0;0.0;0.612;0.027900157931;46.854625555240005
1;0.008078813552856445;0.612;0.027900157931;46.848751840116
2;0.015385627746582031;0.611;0.026431729150000007;46.860499270364
3;0.022695302963256836;0.611;-0.004405275250999999;46.872246700612
4;0.029989004135131836;0.611;0.027900157931;46.857562412802004
5;0.03728127479553223;0.611;0.027900157931;46.857562412802004
6;0.04458189010620117;0.612;0.029368586711999996;46.87518355817401
7;0.05187058448791504;0.611;0.027900157931;46.87812041573601
8;0.05918455123901367;0.611;0.027900157931;46.853157126459
9;0.0664827823638916;0.611;-0.002936846470000004;46.853157126459
10;0.07377243041992188;0.612;0.029368586711999996;46.873715129393005
11;0.08106493949890137;0.612;0.027900157931;46.866372985488006
12;0.08835601806640625;0.611;0.033773873054999994;46.854625555240005
13;0.09564876556396484;0.611;0.022026442806999995;46.87077827183101
14;0.10308003425598145;0.61;0.026431729150000007;46.866372985488006
15;0.11037397384643555;0.612;0.024963300368999998;46.853157126459
16;0.11773800849914551;0.611;0.030837015493000004;46.838472838649004
17;0.1250321865081787;0.612;0.058737162332;46.848751840116
18;0.1323244571685791;0.612;0.027900157931;46.86343612792601
19;0.13961529731750488;0.612;-0.002936846470000004;46.85903084158301
20;0.14691734313964844;0.611;0.026431729150000007;46.876651986955004
21;0.15420842170715332;0.612;-0.007342132813000002;46.867841414269
22;0.1614983081817627;0.612;0.0014684398730000006;46.866372985488006
23;0.16878819465637207;0.611;0.027900157931;46.867841414269
24;0.17607879638671875;0.611;0.029368586711999996;46.88252570207901
25;0.18337035179138184;0.611;0.026431729150000007;46.85609398402101
26;0.19080138206481934;0.611;0.027900157931;46.869309843050004
27;0.198106050491333;0.611;0.0014684398730000006;46.872246700612
28;0.2053978443145752;0.612;0.0014684398730000006;46.879588844517
29;0.2126927375793457;0.612;0.027900157931;46.87812041573601
30;0.21998381614685059;0.611;0.002936868654000002;46.854625555240005
31;0.22727704048156738;0.611;0.026431729150000007;46.85609398402101
32;0.23458194732666016;0.612;0.027900157931;46.87812041573601
33;0.24187207221984863;0.612;0.026431729150000007;46.854625555240005
34;0.24916553497314453;0.611;0.007342154997;46.869309843050004
35;0.25646162033081055;0.612;0.026431729150000007;46.885462559641006
36;0.2637670040130615;0.611;0.026431729150000007;46.86343612792601
37;0.2710609436035156;0.612;0.027900157931;46.83994126743001
38;0.27835655212402344;0.611;0.011747441339999998;46.845814982554
39;0.2856447696685791;0.613;-0.005873704032;46.857562412802004
40;0.29293274879455566;0.611;0.026431729150000007;46.864904556707
41;0.30022239685058594;0.611;0.027900157931;46.881057273298005
42;0.3075129985809326;0.611;-0.007342132813000002;46.85168869767801
43;0.3148033618927002;0.611;0.027900157931;46.866372985488006
44;0.3220953941345215;0.611;0.027900157931;46.873715129393005
45;0.3293912410736084;0.611;0.014684298902000001;46.853157126459
46;0.336683988571167;0.611;0.026431729150000007;46.861967699145005
47;0.3439764976501465;0.611;-0.004405275250999999;46.847283411335006
48;0.3512697219848633;0.612;0.005873726215999998;46.864904556707
49;0.35856056213378906;0.611;0.017621156463999997;46.872246700612
50;0.36591267585754395;0.612;0.026431729150000007;46.86343612792601
51;0.37320399284362793;0.611;0.038179159398000005;46.87518355817401
52;0.3804945945739746;0.611;0.027900157931;46.87077827183101
53;0.38779616355895996;0.611;0.017621156463999997;46.867841414269
54;0.39508819580078125;0.611;0.027900157931;46.867841414269
55;0.4023771286010742;0.612;0.027900157931;46.869309843050004
56;0.4100067615509033;0.612;0.013215870121;46.867841414269
57;0.4173917770385742;0.611;0.029368586711999996;46.850220268897004
58;0.42468881607055664;0.612;0.013215870121;46.881057273298005
59;0.43198347091674805;0.61;0.044052874522;46.88252570207901
60;0.43927645683288574;0.611;0.010279012558999996;46.867841414269
61;0.4465677738189697;0.612;0.026431729150000007;46.867841414269
62;0.45388126373291016;0.61;0.010279012558999996;46.88399413086
63;0.46117353439331055;0.612;0.029368586711999996;46.854625555240005
64;0.4684624671936035;0.611;0.029368586711999996;46.86343612792601
65;0.4757540225982666;0.612;0.027900157931;46.873715129393005
66;0.4830946922302246;0.611;0.014684298902000001;46.847283411335006
67;0.49039387702941895;0.611;0.016152727683000002;46.86343612792601
68;0.4977536201477051;0.612;-0.005873704032;46.845814982554
69;0.50504469871521;0.611;0.013215870121;46.86343612792601
70;0.5123496055603027;0.611;0.033773873054999994;46.864904556707
71;0.5196793079376221;0.611;0.029368586711999996;46.85903084158301
72;0.5269813537597656;0.611;-0.004405275250999999;46.87077827183101
73;0.534271240234375;0.611;0.029368586711999996;46.85609398402101
74;0.5415589809417725;0.611;0.027900157931;46.872246700612
75;0.5488488674163818;0.611;0.026431729150000007;46.87812041573601
76;0.5561408996582031;0.61;0.020558014026;46.864904556707
77;0.5634331703186035;0.612;0.026431729150000007;46.85609398402101
78;0.5707731246948242;0.611;0.027900157931;46.860499270364
79;0.5780644416809082;0.612;0.027900157931;46.864904556707
80;0.5853562355041504;0.61;0.027900157931;46.866372985488006
81;0.592644453048706;0.61;0.022026442806999995;46.869309843050004
82;0.5999329090118408;0.611;0.026431729150000007;46.876651986955004
83;0.6072597503662109;0.612;0.032305444274;46.860499270364
84;0.6145496368408203;0.611;0.026431729150000007;46.864904556707
85;0.6218392848968506;0.611;-0.007342132813000002;46.85903084158301
86;0.6291406154632568;0.61;-0.005873704032;46.853157126459
87;0.6364314556121826;0.611;0.058737162332;46.86343612792601
88;0.6437203884124756;0.612;-0.004405275250999999;46.867841414269
89;0.6510095596313477;0.612;0.029368586711999996;46.853157126459
90;0.6583459377288818;0.611;-0.005873704032;46.87077827183101
91;0.6656372547149658;0.612;0.026431729150000007;46.867841414269
92;0.672924280166626;0.612;0.026431729150000007;46.848751840116
93;0.6803624629974365;0.611;0.027900157931;46.864904556707
94;0.6877329349517822;0.611;-0.005873704032;46.85903084158301
95;0.6950287818908691;0.611;0.027900157931;46.86343612792601
96;0.7023768424987793;0.612;0.005873726215999998;46.857562412802004
97;0.7102913856506348;0.611;0.029368586711999996;46.88399413086
98;0.7182772159576416;0.611;0.0014684398730000006;46.85168869767801
99;0.726250410079956;0.611;-0.005873704032;46.873715129393005
100;0.734217643737793;0.612;0.027900157931;46.87812041573601
101;0.742182731628418;0.611;-0.007342132813000002;46.872246700612
102;0.7501506805419922;0.611;0.029368586711999996;46.854625555240005
103;0.759223222732544;0.611;0.055800304769999996;46.881057273298005
104;0.7671983242034912;0.611;0.029368586711999996;46.867841414269
105;0.775169849395752;0.611;0.027900157931;46.872246700612
106;0.7832362651824951;0.611;0.027900157931;46.87077827183101
107;0.7912626266479492;0.611;-0.007342132813000002;46.864904556707
108;0.7992279529571533;0.611;0.008810583778000002;46.85609398402101
109;0.8072419166564941;0.611;0.026431729150000007;46.842878124992005
110;0.81520676612854;0.611;0.027900157931;46.869309843050004
111;0.8232333660125732;0.612;0.026431729150000007;46.85168869767801
112;0.8312592506408691;0.611;0.06020559111300001;46.85609398402101
113;0.839224100112915;0.611;0.027900157931;46.872246700612
114;0.8471956253051758;0.612;-0.007342132813000002;46.87077827183101
115;0.8553943634033203;0.611;0.027900157931;46.861967699145005
116;0.8633828163146973;0.611;0.027900157931;46.885462559641006
117;0.8713512420654297;0.611;0.026431729150000007;46.854625555240005
118;0.8793215751647949;0.612;0.036710730617;46.88399413086
119;0.8872931003570557;0.612;1.1091999999046642e-08;46.87518355817401
120;0.895256757736206;0.612;0.024963300368999998;46.876651986955004
121;0.9033620357513428;0.611;0.033773873054999994;46.85609398402101
122;0.9113459587097168;0.612;0.027900157931;46.872246700612
123;0.9193136692047119;0.612;0.026431729150000007;46.857562412802004
124;0.9272818565368652;0.611;-0.005873704032;46.845814982554
125;0.9352493286132812;0.611;0.013215870121;46.866372985488006
126;0.9432952404022217;0.611;-0.005873704032;46.861967699145005
127;0.9513232707977295;0.611;0.011747441339999998;46.848751840116
128;0.9592897891998291;0.612;0.027900157931;46.873715129393005
129;0.967259407043457;0.612;0.027900157931;46.866372985488006
130;0.9752295017242432;0.611;0.027900157931;46.87077827183101
131;0.983262300491333;0.611;0.026431729150000007;46.87812041573601
132;0.9912869930267334;0.611;0.027900157931;46.864904556707
133;0.9992501735687256;0.611;-0.0014684176890000025;46.86343612792601
134;1.0072603225708008;0.612;0.019089585245000006;46.89720998988901
135;1.0154335498809814;0.611;0.033773873054999994;46.991189431873
136;1.0234003067016602;0.612;0.05286344720800001;46.914831135261004
137;1.0313665866851807;0.611;0.051395018427;46.926578565509004
138;1.0393333435058594;0.611;0.05286344720800001;46.916299564042006
139;1.0472979545593262;0.611;0.054331875989;46.92511013672801
140;1.0553326606750488;0.612;0.089574166733;46.919236421604005
141;1.063305377960205;0.611;0.089574166733;46.917767992823
142;1.0713262557983398;0.611;0.088105737952;46.929515423071
143;1.0792977809906006;0.611;0.054331875989;46.93245228063301
144;1.087263584136963;0.611;0.089574166733;46.94713656844301
145;1.0952279567718506;0.611;0.088105737952;46.917767992823
146;1.1032733917236328;0.611;0.069016163799;46.92511013672801
147;1.1113600730895996;0.612;0.089574166733;46.938325995757005
148;1.1193335056304932;0.612;0.09544788185699998;46.922173279166
149;1.127323865890503;0.611;0.055800304769999996;46.92511013672801
150;1.1353578567504883;0.612;0.088105737952;46.923641707947006
151;1.143336534500122;0.611;0.089574166733;46.917767992823
152;1.1513636112213135;0.612;0.088105737952;46.914831135261004
153;1.1593379974365234;0.611;0.088105737952;46.922173279166
154;1.1673064231872559;0.611;0.088105737952;46.911894277699005
155;1.1753358840942383;0.612;0.088105737952;46.92511013672801
156;1.1833126544952393;0.611;0.055800304769999996;46.917767992823
157;1.1914706230163574;0.611;0.088105737952;46.926578565509004
158;1.199465036392212;0.611;0.057268733551000005;46.911894277699005
159;1.207442283630371;0.611;0.089574166733;46.900146847451005
160;1.2154200077056885;0.611;0.08663730917099999;46.91336270648001
161;1.2233953475952148;0.611;0.069016163799;46.888399417203004
162;1.2313783168792725;0.611;0.123348028696;46.895741561108004
163;1.2393481731414795;0.611;0.123348028696;46.933920709414004
164;1.2473185062408447;0.612;0.083700451609;46.90895742013701
165;1.2553653717041016;0.611;0.088105737952;46.895741561108004
166;1.2633335590362549;0.611;0.088105737952;46.923641707947006
167;1.2713611125946045;0.611;0.089574166733;46.885462559641006
168;1.2793300151824951;0.611;0.089574166733;46.89427313232701
169;1.2873003482818604;0.611;0.088105737952;46.92070485038501
170;1.2953250408172607;0.611;0.10572688332399999;46.923641707947006
171;1.303299903869629;0.611;0.088105737952;46.89427313232701
172;1.3113656044006348;0.611;0.057268733551000005;46.907488991356004
173;1.3193562030792236;0.612;0.09104259551399999;46.888399417203004
174;1.327329158782959;0.61;0.069016163799;46.910425848918
175;1.3353722095489502;0.611;0.089574166733;46.89720998988901
176;1.3433465957641602;0.612;0.088105737952;46.89867841867
177;1.3513762950897217;0.611;0.088105737952;46.876651986955004
178;1.3593475818634033;0.612;0.088105737952;46.88986784598401
179;1.3673386573791504;0.611;0.08663730917099999;46.917767992823
180;1.3753342628479004;0.611;0.089574166733;46.891336274765
181;1.3833096027374268;0.611;0.088105737952;46.89427313232701
182;1.3913519382476807;0.61;0.08663730917099999;46.907488991356004
183;1.3993237018585205;0.611;0.074889878923;46.88986784598401
184;1.4073290824890137;0.612;0.088105737952;46.900146847451005
185;1.415356159210205;0.612;0.088105737952;46.90895742013701
186;1.4233298301696777;0.611;0.055800304769999996;46.891336274765
187;1.4313576221466064;0.612;0.09104259551399999;46.90602056257501
188;1.4393327236175537;0.611;0.05286344720800001;46.88693098842201
189;1.4473085403442383;0.611;0.088105737952;46.88252570207901
190;1.4553329944610596;0.611;0.054331875989;46.895741561108004
191;1.4633021354675293;0.611;0.088105737952;46.891336274765
192;1.4713528156280518;0.611;0.089574166733;46.891336274765
193;1.4793241024017334;0.611;0.088105737952;46.888399417203004
194;1.487351655960083;0.611;0.06020559111300001;46.879588844517
195;1.4953482151031494;0.611;0.055800304769999996;46.90895742013701
196;1.5033183097839355;0.611;0.089574166733;46.89867841867
197;1.5113914012908936;0.612;0.088105737952;46.88986784598401
198;1.519361972808838;0.611;0.07635830770400001;46.900146847451005
199;1.5274174213409424;0.612;0.089574166733;46.88252570207901
200;1.5353960990905762;0.611;0.073421450142;46.881057273298005
201;1.5433738231658936;0.612;0.088105737952;46.88252570207901
202;1.5513463020324707;0.611;0.08663730917099999;46.867841414269
203;1.5593242645263672;0.611;0.089574166733;46.876651986955004
204;1.5672929286956787;0.612;0.089574166733;46.888399417203004
205;1.5753579139709473;0.611;0.055800304769999996;46.89720998988901
206;1.583331823348999;0.612;0.089574166733;46.88986784598401
207;1.5913565158843994;0.611;0.088105737952;46.88986784598401
208;1.5993239879608154;0.612;0.06020559111300001;46.90161527623201
209;1.6073012351989746;0.611;0.088105737952;46.86343612792601
210;1.6153676509857178;0.611;0.08663730917099999;46.869309843050004
211;1.6233415603637695;0.612;0.08076359404699998;46.881057273298005
212;1.6313672065734863;0.612;0.089574166733;46.873715129393005
213;1.6404402256011963;0.611;0.088105737952;46.88252570207901
214;1.6484184265136719;0.611;0.08663730917099999;46.88693098842201
215;1.6563847064971924;0.611;0.089574166733;46.881057273298005
216;1.664353847503662;0.612;0.07782673648499999;46.88399413086
217;1.6723239421844482;0.612;0.054331875989;46.885462559641006
218;1.6802923679351807;0.61;0.107195312105;46.885462559641006
219;1.6882562637329102;0.612;0.054331875989;46.89720998988901
220;1.6962954998016357;0.61;0.088105737952;46.872246700612
221;1.7042620182037354;0.612;0.089574166733;46.885462559641006
222;1.7122876644134521;0.611;0.088105737952;46.88693098842201
223;1.7202579975128174;0.611;0.088105737952;46.895741561108004
224;1.7282273769378662;0.611;0.06314244867499999;46.876651986955004
225;1.7361948490142822;0.612;0.061674019894;46.864904556707
226;1.744164228439331;0.612;0.089574166733;46.88693098842201
227;1.752126693725586;0.611;0.089574166733;46.873715129393005
228;1.7601206302642822;0.611;0.089574166733;46.867841414269
229;1.7681372165679932;0.612;0.089574166733;46.881057273298005
230;1.776120901107788;0.612;0.055800304769999996;46.885462559641006
231;1.7840864658355713;0.611;0.089574166733;46.873715129393005
232;1.792053461074829;0.611;0.055800304769999996;46.866372985488006
233;1.8001065254211426;0.612;0.074889878923;46.87077827183101
234;1.8080775737762451;0.612;0.089574166733;46.876651986955004
235;1.8160898685455322;0.611;0.06607930623700001;46.87077827183101
236;1.8240625858306885;0.612;0.089574166733;46.876651986955004
237;1.8320348262786865;0.611;0.089574166733;46.879588844517
238;1.840064287185669;0.611;0.055800304769999996;46.867841414269
239;1.848041296005249;0.61;0.08516888039;46.88252570207901
240;1.8560655117034912;0.612;0.07782673648499999;46.876651986955004
241;1.864030122756958;0.612;0.055800304769999996;46.876651986955004
242;1.8719990253448486;0.611;0.089574166733;46.87812041573601
243;1.8799703121185303;0.612;0.088105737952;46.853157126459
244;1.887995719909668;0.612;0.054331875989;46.86343612792601
245;1.8960177898406982;0.611;0.089574166733;46.876651986955004
246;1.9039902687072754;0.612;0.06754773501799999;46.86343612792601
247;1.9123363494873047;0.612;0.088105737952;46.85903084158301
248;1.920421838760376;0.611;0.055800304769999996;46.87077827183101
249;1.9284021854400635;0.612;0.088105737952;46.869309843050004
250;1.9363749027252197;0.611;0.088105737952;46.867841414269
251;1.9443440437316895;0.611;0.054331875989;46.87518355817401
252;1.952315092086792;0.611;0.069016163799;46.860499270364
253;1.960291862487793;0.612;0.088105737952;46.873715129393005
254;1.9682598114013672;0.611;0.089574166733;46.864904556707
255;1.9762258529663086;0.612;0.083700451609;46.872246700612
256;1.9841945171356201;0.611;0.088105737952;46.857562412802004
257;1.9921619892120361;0.612;0.088105737952;46.87518355817401
258;2.0001285076141357;0.612;0.054331875989;46.87077827183101
259;2.0081138610839844;0.612;0.10572688332399999;46.879588844517
260;2.0161285400390625;0.611;0.057268733551000005;46.864904556707
261;2.024106025695801;0.612;0.073421450142;46.850220268897004
262;2.0320847034454346;0.611;0.089574166733;46.853157126459
263;2.04006290435791;0.612;0.079295165266;46.867841414269
264;2.048039197921753;0.612;0.088105737952;46.879588844517
265;2.056145191192627;0.611;0.064610877456;46.857562412802004
266;2.064119338989258;0.611;0.061674019894;46.848751840116
267;2.072094202041626;0.612;0.088105737952;46.861967699145005
268;2.080068588256836;0.611;0.079295165266;46.838472838649004
269;2.088045835494995;0.612;0.088105737952;46.866372985488006
270;2.0960729122161865;0.612;0.08663730917099999;46.848751840116
271;2.1040680408477783;0.611;0.088105737952;46.848751840116
272;2.1120784282684326;0.612;0.089574166733;46.85609398402101
273;2.1200568675994873;0.612;0.088105737952;46.85609398402101
274;2.1280312538146973;0.611;0.104258454543;46.835535981087006
275;2.1360652446746826;0.611;0.121879599915;46.869309843050004
276;2.144036054611206;0.611;0.054331875989;46.845814982554
277;2.152010440826416;0.612;0.088105737952;46.848751840116
278;2.1599807739257812;0.612;0.088105737952;46.85168869767801
279;2.168008804321289;0.613;0.08223202282799999;46.848751840116
280;2.1760332584381104;0.612;0.054331875989;46.872246700612
281;2.184002637863159;0.612;0.06607930623700001;46.853157126459
282;2.192110776901245;0.611;0.088105737952;46.85168869767801
283;2.200103282928467;0.611;0.113069027229;46.850220268897004
284;2.2080776691436768;0.611;0.089574166733;46.85903084158301
285;2.216094732284546;0.612;0.069016163799;46.848751840116
286;2.224062204360962;0.612;0.088105737952;46.848751840116
287;2.232034921646118;0.611;0.089574166733;46.848751840116
288;2.2400753498077393;0.611;0.054331875989;46.838472838649004
289;2.2480475902557373;0.611;0.089574166733;46.860499270364
290;2.2560665607452393;0.612;0.09104259551399999;46.845814982554
291;2.264036178588867;0.611;0.09104259551399999;46.835535981087006
292;2.2720072269439697;0.611;0.088105737952;46.842878124992005
293;2.27998685836792;0.611;0.088105737952;46.845814982554
294;2.288011312484741;0.612;0.089574166733;46.848751840116
295;2.296034812927246;0.612;0.089574166733;46.831130694744004
296;2.3040053844451904;0.61;0.088105737952;46.845814982554
297;2.3119781017303467;0.612;0.088105737952;46.854625555240005
298;2.3199877738952637;0.612;0.054331875989;46.83994126743001
299;2.3280255794525146;0.612;0.055800304769999996;46.84434655377301
300;2.3360676765441895;0.612;0.088105737952;46.84434655377301
301;2.344038486480713;0.611;0.088105737952;46.83259912352501
302;2.3520100116729736;0.612;0.092511024295;46.853157126459
303;2.3599817752838135;0.611;0.089574166733;46.83994126743001
304;2.3680038452148438;0.611;0.088105737952;46.828193837182006
305;2.376025676727295;0.612;0.054331875989;46.866372985488006
306;2.383995532989502;0.61;0.08076359404699998;46.85609398402101
307;2.3919718265533447;0.611;0.089574166733;46.83994126743001
308;2.3999385833740234;0.611;0.088105737952;46.823788550839005
309;2.4079713821411133;0.611;0.088105737952;46.85168869767801
310;2.4160349369049072;0.612;0.089574166733;46.822320122058
311;2.4240026473999023;0.611;0.088105737952;46.831130694744004
312;2.431981086730957;0.612;0.088105737952;46.83700440986801
313;2.439951181411743;0.612;0.07195302136100001;46.83994126743001
