;Time;Thrust;BEM pressure;N2O pressure;N2OWeigth
0;0.0;-1.17560939778079;-0.05659996323500855;-0.1973986705982308;-19.18570683199067
1;0.015347719192504883;-1.17560939778079;-0.05659996323500855;-0.1973986705982308;-19.18570683199067
2;0.029492616653442383;-1.17560939778079;-0.05659996323500855;-0.1973986705982308;-19.18570683199067
3;0.043831825256347656;-1.17560939778079;-0.05659996323500855;-0.1973986705982308;-19.18570683199067
4;0.058075904846191406;-1.17560939778079;-0.05659996323500855;-0.1973986705982308;-19.18570683199067
5;0.07232904434204102;-1.17560939778079;-0.05659996323500855;-0.1973986705982308;-19.18570683199067
6;0.0952303409576416;-1.17560939778079;-0.05659996323500855;-0.1973986705982308;-19.18570683199067
7;0.10944747924804688;-1.17560939778079;-0.05659996323500855;-0.1973986705982308;-19.18570683199067
8;0.12366151809692383;-1.17560939778079;-0.05659996323500855;-0.1973986705982308;-19.18570683199067
9;0.13790154457092285;-1.17560939778079;-0.05659996323500855;-0.1973986705982308;-19.18570683199067
10;0.15203046798706055;-1.17560939778079;-0.05659996323500855;-0.1973986705982308;-19.18570683199067
11;0.16623663902282715;-1.17560939778079;-0.05659996323500855;-0.1973986705982308;-19.18570683199067
12;0.18048977851867676;-1.17560939778079;-0.05659996323500855;-0.1973986705982308;-19.18570683199067
13;0.19471073150634766;-1.17560939778079;-0.05659996323500855;-0.1973986705982308;-19.18570683199067
14;0.2088766098022461;-1.17560939778079;-0.05659996323500855;-0.1973986705982308;-19.18570683199067
15;0.22318172454833984;-1.17560939778079;-0.05659996323500855;-0.1973986705982308;-19.18570683199067
16;0.2374567985534668;-1.17560939778079;-0.05659996323500855;-0.1973986705982308;-19.18570683199067
17;0.25168395042419434;-1.17560939778079;-0.05659996323500855;-0.1973986705982308;-19.18570683199067
18;0.2657606601715088;-1.17560939778079;-0.05659996323500855;-0.1973986705982308;-19.18570683199067
19;0.2799975872039795;-1.17560939778079;-0.05659996323500855;-0.1973986705982308;-19.18570683199067
20;0.2941718101501465;-1.17560939778079;-0.05659996323500855;-0.1973986705982308;-19.18570683199067
21;0.308413028717041;-1.17560939778079;-0.05659996323500855;-0.1973986705982308;-19.18570683199067
22;0.3226509094238281;-1.17560939778079;-0.05659996323500855;-0.1973986705982308;-19.18570683199067
23;0.3368499279022217;-1.17560939778079;-0.05659996323500855;-0.1973986705982308;-19.18570683199067
24;0.3510580062866211;-1.17560939778079;-0.05659996323500855;-0.1973986705982308;-19.18570683199067
25;0.36524486541748047;-1.17560939778079;-0.05659996323500855;-0.1973986705982308;-19.18570683199067
26;0.37943601608276367;-1.17560939778079;-0.05659996323500855;-0.1973986705982308;-19.18570683199067
27;0.3936288356781006;-1.17560939778079;-0.05659996323500855;-0.1973986705982308;-19.18570683199067
28;0.4078989028930664;-1.17560939778079;-0.05659996323500855;-0.1973986705982308;-19.18570683199067
29;0.4220740795135498;-1.17560939778079;-0.05659996323500855;-0.1973986705982308;-19.18570683199067
30;0.4362528324127197;-1.17560939778079;-0.05659996323500855;-0.1973986705982308;-19.18570683199067
31;0.45052528381347656;-1.17560939778079;-0.05659996323500855;-0.1973986705982308;-19.18570683199067
32;0.46481823921203613;-1.17560939778079;-0.05659996323500855;-0.1973986705982308;-19.18570683199067
33;0.4877495765686035;-1.17560939778079;-0.05659996323500855;-0.1973986705982308;-19.18570683199067
34;0.501955509185791;-1.17560939778079;-0.05659996323500855;-0.1973986705982308;-19.18570683199067
35;0.5160307884216309;-1.17560939778079;-0.05659996323500855;-0.1973986705982308;-19.18570683199067
36;0.5303819179534912;-1.17560939778079;-0.05659996323500855;-0.1973986705982308;-19.18570683199067
37;0.5444827079772949;-1.17560939778079;-0.05659996323500855;-0.1973986705982308;-19.18570683199067
38;0.558701753616333;-1.17560939778079;-0.05659996323500855;-0.1973986705982308;-19.18570683199067
39;0.5728507041931152;-1.17560939778079;-0.05659996323500855;-0.1973986705982308;-19.18570683199067
40;0.5870335102081299;-1.17560939778079;-0.05659996323500855;-0.1973986705982308;-19.18570683199067
41;0.6012566089630127;-1.17560939778079;-0.05659996323500855;-0.1973986705982308;-19.18570683199067
42;0.6153848171234131;-1.17560939778079;-0.05659996323500855;-0.1973986705982308;-19.18570683199067
43;0.6296107769012451;-1.17560939778079;-0.05659996323500855;-0.1973986705982308;-19.18570683199067
44;0.6438586711883545;-1.17560939778079;-0.05659996323500855;-0.1973986705982308;-19.18570683199067
45;0.658893346786499;-1.17560939778079;-0.05659996323500855;-0.1973986705982308;-19.18570683199067
46;0.6775662899017334;-1.17560939778079;-0.05659996323500855;-0.1973986705982308;-19.18570683199067
47;0.6961400508880615;-1.17560939778079;-0.05659996323500855;-0.1973986705982308;-19.18570683199067
48;0.714646577835083;-1.17560939778079;-0.05659996323500855;-0.1973986705982308;-19.18570683199067
49;0.7333040237426758;-1.17560939778079;-0.05659996323500855;-0.1973986705982308;-19.18570683199067
50;0.7519166469573975;-1.17560939778079;-0.05659996323500855;-0.1973986705982308;-19.18570683199067
51;0.7705070972442627;-1.17560939778079;-0.05659996323500855;-0.1973986705982308;-19.18570683199067
52;0.7890152931213379;-1.17560939778079;-0.05659996323500855;-0.1973986705982308;-19.18570683199067
53;0.8076040744781494;-1.17560939778079;-0.05659996323500855;-0.1973986705982308;-19.18570683199067
54;0.8261635303497314;-1.17560939778079;-0.05659996323500855;-0.1973986705982308;-19.18570683199067
55;0.8446757793426514;-1.17560939778079;-0.05659996323500855;-0.1973986705982308;-19.18570683199067
56;0.8633582592010498;-1.17560939778079;-0.05659996323500855;-0.1973986705982308;-19.18570683199067
57;0.8821229934692383;-1.17560939778079;-0.05659996323500855;-0.1973986705982308;-19.18570683199067
58;0.9007444381713867;-1.17560939778079;-0.05659996323500855;-0.1973986705982308;-19.18570683199067
59;0.9192609786987305;-1.17560939778079;-0.05659996323500855;-0.1973986705982308;-19.18570683199067
60;0.9378683567047119;-1.17560939778079;-0.05659996323500855;-0.1973986705982308;-19.18570683199067
61;0.9565637111663818;-1.17560939778079;-0.05659996323500855;-0.1973986705982308;-19.18570683199067
62;0.9752893447875977;-1.17560939778079;-0.05659996323500855;-0.1973986705982308;-19.18570683199067
63;0.9938228130340576;-1.17560939778079;-0.05659996323500855;-0.1973986705982308;-19.18570683199067
64;1.0123672485351562;-1.17560939778079;-0.05659996323500855;-0.1973986705982308;-19.18570683199067
65;1.078674077987671;-1.17560939778079;-0.05659996323500855;-0.1973986705982308;-19.18570683199067
66;1.0937094688415527;-1.17560939778079;-0.05659996323500855;-0.1973986705982308;-19.18570683199067
67;1.107865333557129;-1.17560939778079;-0.05659996323500855;-0.1973986705982308;-19.18570683199067
68;1.1219558715820312;-1.17560939778079;-0.05659996323500855;-0.1973986705982308;-19.18570683199067
69;1.1361258029937744;-1.17560939778079;-0.05659996323500855;-0.1973986705982308;-19.18570683199067
70;1.1504085063934326;-1.17560939778079;-0.05659996323500855;-0.1973986705982308;-19.18570683199067
71;1.164555311203003;-1.17560939778079;-0.05659996323500855;-0.1973986705982308;-19.18570683199067
72;1.1788442134857178;-1.17560939778079;-0.05659996323500855;-0.1973986705982308;-19.18570683199067
73;1.192997932434082;-1.17560939778079;-0.05659996323500855;-0.1973986705982308;-19.18570683199067
74;1.2072014808654785;-1.17560939778079;-0.05659996323500855;-0.1973986705982308;-19.18570683199067
75;1.2214055061340332;-1.17560939778079;-0.05659996323500855;-0.1973986705982308;-19.18570683199067
76;1.2355680465698242;-1.17560939778079;-0.05659996323500855;-0.1973986705982308;-19.18570683199067
77;1.2497339248657227;-1.17560939778079;-0.05659996323500855;-0.1973986705982308;-19.18570683199067
78;1.2638866901397705;-1.17560939778079;-0.05659996323500855;-0.1973986705982308;-19.18570683199067
79;1.2863993644714355;-1.17560939778079;-0.05659996323500855;-0.1973986705982308;-19.18570683199067
80;1.3010497093200684;-1.17560939778079;-0.05659996323500855;-0.1973986705982308;-19.18570683199067
81;1.315237045288086;-1.17560939778079;-0.05659996323500855;-0.1973986705982308;-19.18570683199067
82;1.3296020030975342;-1.17560939778079;-0.05659996323500855;-0.1973986705982308;-19.18570683199067
83;1.3438479900360107;-1.17560939778079;-0.05659996323500855;-0.1973986705982308;-19.18570683199067
84;1.358095645904541;-1.17560939778079;-0.05659996323500855;-0.1973986705982308;-19.18570683199067
85;1.3722834587097168;-1.17560939778079;-0.05659996323500855;-0.1973986705982308;-19.18570683199067
86;1.3864569664001465;-1.17560939778079;-0.05659996323500855;-0.1973986705982308;-19.18570683199067
87;1.4007370471954346;-1.17560939778079;-0.05659996323500855;-0.1973986705982308;-19.18570683199067
88;1.4151668548583984;-1.17560939778079;-0.05659996323500855;-0.1973986705982308;-19.18570683199067
89;1.4293737411499023;-1.17560939778079;-0.05659996323500855;-0.1973986705982308;-19.18570683199067
90;1.4435625076293945;-1.17560939778079;-0.05659996323500855;-0.1973986705982308;-19.18570683199067
91;1.4578073024749756;-1.17560939778079;-0.05659996323500855;-0.1973986705982308;-19.18570683199067
92;1.4719789028167725;-1.17560939778079;-0.05659996323500855;-0.1973986705982308;-19.18570683199067
93;1.4860866069793701;-1.17560939778079;-0.05659996323500855;-0.1973986705982308;-19.18570683199067
94;1.5004243850708008;-1.17560939778079;-0.05659996323500855;-0.1973986705982308;-19.18570683199067
95;1.514519214630127;-1.17560939778079;-0.05659996323500855;-0.1973986705982308;-19.18570683199067
96;1.5287449359893799;-1.17560939778079;-0.05659996323500855;-0.1973986705982308;-19.18570683199067
97;1.5429928302764893;-1.17560939778079;-0.05659996323500855;-0.1973986705982308;-19.18570683199067
98;1.5572257041931152;-1.17560939778079;-0.05659996323500855;-0.1973986705982308;-19.18570683199067
99;1.5714523792266846;-1.17560939778079;-0.05659996323500855;-0.1973986705982308;-19.18570683199067
100;1.58561110496521;-1.17560939778079;-0.05659996323500855;-0.1973986705982308;-19.18570683199067
101;1.5997767448425293;-1.17560939778079;-0.05659996323500855;-0.1973986705982308;-19.18570683199067
102;1.6139965057373047;-1.17560939778079;-0.05659996323500855;-0.1973986705982308;-19.18570683199067
103;1.6282272338867188;-1.17560939778079;-0.05659996323500855;-0.1973986705982308;-19.18570683199067
104;1.6424801349639893;-1.17560939778079;-0.05659996323500855;-0.1973986705982308;-19.18570683199067
105;1.6658778190612793;-1.17560939778079;-0.05659996323500855;-0.1973986705982308;-19.18570683199067
106;1.6886827945709229;-1.17560939778079;-0.05659996323500855;-0.1973986705982308;-19.18570683199067
107;1.7029705047607422;-1.17560939778079;-0.05659996323500855;-0.1973986705982308;-19.18570683199067
108;1.7171740531921387;-1.17560939778079;-0.05659996323500855;-0.1973986705982308;-19.18570683199067
109;1.7314574718475342;-1.17560939778079;-0.05659996323500855;-0.1973986705982308;-19.18570683199067
110;1.7456119060516357;-1.17560939778079;-0.05659996323500855;-0.1973986705982308;-19.18570683199067
111;1.7597424983978271;-1.17560939778079;-0.05659996323500855;-0.1973986705982308;-19.18570683199067
112;1.7761905193328857;-1.17560939778079;-0.05659996323500855;-0.1973986705982308;-19.18570683199067
113;1.7947256565093994;-1.17560939778079;-0.05659996323500855;-0.1973986705982308;-19.18570683199067
114;1.8133316040039062;-1.17560939778079;-0.05659996323500855;-0.1973986705982308;-19.18570683199067
115;1.8319809436798096;-1.17560939778079;-0.05659996323500855;-0.1973986705982308;-19.18570683199067
116;1.850886344909668;-1.17560939778079;-0.05659996323500855;-0.1973986705982308;-19.18570683199067
117;1.8694205284118652;-1.17560939778079;-0.05659996323500855;-0.1973986705982308;-19.18570683199067
118;1.8880856037139893;-1.17560939778079;-0.05659996323500855;-0.1973986705982308;-19.18570683199067
119;1.906660795211792;-1.17560939778079;-0.05659996323500855;-0.1973986705982308;-19.18570683199067
120;1.9253618717193604;-1.17560939778079;-0.05659996323500855;-0.1973986705982308;-19.18570683199067
121;1.9439542293548584;-1.17560939778079;-0.05659996323500855;-0.1973986705982308;-19.18570683199067
122;1.9626784324645996;-1.17560939778079;-0.05659996323500855;-0.1973986705982308;-19.18570683199067
123;1.981245517730713;-1.17560939778079;-0.05659996323500855;-0.1973986705982308;-19.18570683199067
124;1.9998235702514648;-1.17560939778079;-0.05659996323500855;-0.1973986705982308;-19.18570683199067
125;2.018441915512085;-1.17560939778079;-0.05659996323500855;-0.1973986705982308;-19.18570683199067
126;2.037137031555176;-1.17560939778079;-0.05659996323500855;-0.1973986705982308;-19.18570683199067
127;2.055790424346924;-1.17560939778079;-0.05659996323500855;-0.1973986705982308;-19.18570683199067
128;2.074270486831665;-1.17560939778079;-0.05659996323500855;-0.1973986705982308;-19.18570683199067
129;2.092949390411377;-1.17560939778079;-0.05659996323500855;-0.1973986705982308;-19.18570683199067
130;2.1115927696228027;-1.17560939778079;-0.05659996323500855;-0.1973986705982308;-19.18570683199067
131;2.130120038986206;-1.17560939778079;-0.05659996323500855;-0.1973986705982308;-19.18570683199067
132;2.1488611698150635;-1.17560939778079;-0.05659996323500855;-0.1973986705982308;-19.18570683199067
133;2.167447328567505;-1.17560939778079;-0.05659996323500855;-0.1973986705982308;-19.18570683199067
134;2.186051607131958;-1.17560939778079;-0.05659996323500855;-0.1973986705982308;-19.18570683199067
135;2.2045836448669434;-1.17560939778079;-0.05659996323500855;-0.1973986705982308;-19.18570683199067
136;2.223151922225952;-1.17560939778079;-0.05659996323500855;-0.1973986705982308;-19.18570683199067
137;2.241771936416626;-1.17560939778079;-0.05659996323500855;-0.1973986705982308;-19.18570683199067
138;2.2635979652404785;-1.17560939778079;-0.05659996323500855;-0.1973986705982308;-19.18570683199067
139;2.282346248626709;-1.17560939778079;-0.05659996323500855;-0.1973986705982308;-19.18570683199067
140;2.300898551940918;-1.17560939778079;-0.05659996323500855;-0.1973986705982308;-19.18570683199067
141;2.3194427490234375;-1.17560939778079;-0.05659996323500855;-0.1973986705982308;-19.18570683199067
142;2.3381059169769287;-1.17560939778079;-0.05659996323500855;-0.1973986705982308;-19.18570683199067
143;2.3565988540649414;-1.17560939778079;-0.05659996323500855;-0.1973986705982308;-19.18570683199067
144;2.3751440048217773;-1.17560939778079;-0.05659996323500855;-0.1973986705982308;-19.18570683199067
145;2.39365816116333;-1.17560939778079;-0.05659996323500855;-0.1973986705982308;-19.18570683199067
146;2.412234306335449;-1.17560939778079;-0.05659996323500855;-0.1973986705982308;-19.18570683199067
147;2.4307913780212402;-1.17560939778079;-0.05659996323500855;-0.1973986705982308;-19.18570683199067
148;2.4493024349212646;-1.17560939778079;-0.05659996323500855;-0.1973986705982308;-19.18570683199067
149;2.4678235054016113;-1.17560939778079;-0.05659996323500855;-0.1973986705982308;-19.18570683199067
150;2.4978175163269043;-1.17560939778079;-0.05659996323500855;-0.1973986705982308;-19.18570683199067
151;2.5162715911865234;-1.17560939778079;-0.05659996323500855;-0.1973986705982308;-19.18570683199067
152;2.534979820251465;-1.17560939778079;-0.05659996323500855;-0.1973986705982308;-19.18570683199067
153;2.553546905517578;-1.17560939778079;-0.05659996323500855;-0.1973986705982308;-19.18570683199067
154;2.5711965560913086;-1.17560939778079;-0.05659996323500855;-0.1973986705982308;-19.18570683199067
155;2.5853800773620605;-1.17560939778079;-0.05659996323500855;-0.1973986705982308;-19.18570683199067
156;2.5996246337890625;-1.17560939778079;-0.05659996323500855;-0.1973986705982308;-19.18570683199067
157;2.613861322402954;-1.17560939778079;-0.05659996323500855;-0.1973986705982308;-19.18570683199067
158;2.6281118392944336;-1.17560939778079;-0.05659996323500855;-0.1973986705982308;-19.18570683199067
159;2.642322540283203;-1.17560939778079;-0.05659996323500855;-0.1973986705982308;-19.18570683199067
160;2.6564788818359375;-1.17560939778079;-0.05659996323500855;-0.1973986705982308;-19.18570683199067
161;2.670750379562378;-1.17560939778079;-0.05659996323500855;-0.1973986705982308;-19.18570683199067
162;2.684983015060425;-1.17560939778079;-0.05659996323500855;-0.1973986705982308;-19.18570683199067
163;2.699167490005493;-1.17560939778079;-0.05659996323500855;-0.1973986705982308;-19.18570683199067
164;2.713351011276245;-1.17560939778079;-0.05659996323500855;-0.1973986705982308;-19.18570683199067
165;2.7275609970092773;-1.17560939778079;-0.05659996323500855;-0.1973986705982308;-19.18570683199067
166;2.741769552230835;-1.17560939778079;-0.05659996323500855;-0.1973986705982308;-19.18570683199067
167;2.755974531173706;-1.17560939778079;-0.05659996323500855;-0.1973986705982308;-19.18570683199067
168;2.7702248096466064;-1.17560939778079;-0.05659996323500855;-0.1973986705982308;-19.18570683199067
169;2.784414291381836;-1.17560939778079;-0.05659996323500855;-0.1973986705982308;-19.18570683199067
170;2.798701524734497;-1.17560939778079;-0.05659996323500855;-0.1973986705982308;-19.18570683199067
171;2.8129169940948486;-1.17560939778079;-0.05659996323500855;-0.1973986705982308;-19.18570683199067
172;2.827183246612549;-1.17560939778079;-0.05659996323500855;-0.1973986705982308;-19.18570683199067
173;2.8414995670318604;-1.17560939778079;-0.05659996323500855;-0.1973986705982308;-19.18570683199067
174;2.855715751647949;-1.17560939778079;-0.05659996323500855;-0.1973986705982308;-19.18570683199067
175;2.869920253753662;-1.17560939778079;-0.05659996323500855;-0.1973986705982308;-19.18570683199067
176;2.892409324645996;-1.17560939778079;-0.05659996323500855;-0.1973986705982308;-19.18570683199067
177;2.906663656234741;-1.17560939778079;-0.05659996323500855;-0.1973986705982308;-19.18570683199067
178;2.920944929122925;-1.17560939778079;-0.05659996323500855;-0.1973986705982308;-19.18570683199067
179;2.9351861476898193;-1.17560939778079;-0.05659996323500855;-0.1973986705982308;-19.18570683199067
180;2.9494125843048096;-1.17560939778079;-0.05659996323500855;-0.1973986705982308;-19.18570683199067
181;2.9636669158935547;-1.17560939778079;-0.05659996323500855;-0.1973986705982308;-19.18570683199067
182;2.9779133796691895;-1.17560939778079;-0.05659996323500855;-0.1973986705982308;-19.18570683199067
183;2.9920854568481445;-1.17560939778079;-0.05659996323500855;-0.1973986705982308;-19.18570683199067
184;3.0062496662139893;-1.17560939778079;-0.05659996323500855;-0.1973986705982308;-19.18570683199067
185;3.020379066467285;-1.17560939778079;-0.05659996323500855;-0.1973986705982308;-19.18570683199067
186;3.0345163345336914;-1.17560939778079;-0.05659996323500855;-0.1973986705982308;-19.18570683199067
187;3.0487685203552246;-1.17560939778079;-0.05659996323500855;-0.1973986705982308;-19.18570683199067
188;3.062917947769165;-1.17560939778079;-0.05659996323500855;-0.1973986705982308;-19.18570683199067
189;3.077111005783081;-1.17560939778079;-0.05659996323500855;-0.1973986705982308;-19.18570683199067
190;3.0913543701171875;-1.17560939778079;-0.05659996323500855;-0.1973986705982308;-19.18570683199067
191;3.1055147647857666;-1.17560939778079;-0.05659996323500855;-0.1973986705982308;-19.18570683199067
192;3.119706153869629;-1.17560939778079;-0.05659996323500855;-0.1973986705982308;-19.18570683199067
193;3.1339423656463623;-1.17560939778079;-0.05659996323500855;-0.1973986705982308;-19.18570683199067
194;3.1481688022613525;-1.17560939778079;-0.05659996323500855;-0.1973986705982308;-19.18570683199067
195;3.162353992462158;-1.17560939778079;-0.05659996323500855;-0.1973986705982308;-19.18570683199067
196;3.176490306854248;-1.17560939778079;-0.05659996323500855;-0.1973986705982308;-19.18570683199067
197;3.19071364402771;-1.17560939778079;-0.05659996323500855;-0.1973986705982308;-19.18570683199067
198;3.204953908920288;-1.17560939778079;-0.05659996323500855;-0.1973986705982308;-19.18570683199067
