;Time;Thrust;BEM pressure;N2O pressure
0;0.0;21637;0;0
1;0.007906913757324219;21623;1;0
2;0.015128135681152344;21625;0;1
3;0.022325992584228516;21621;0;0
4;0.029506921768188477;21623;0;0
5;0.037139177322387695;21622;0;0
6;0.044332027435302734;21623;1;0
7;0.05152702331542969;21622;0;0
8;0.05870699882507324;21621;1;1
9;0.0658864974975586;21621;1;0
10;0.07310605049133301;21621;1;0
11;0.08028459548950195;21623;0;1
12;0.08747291564941406;21619;0;0
13;0.09465169906616211;21620;1;0
14;0.10183262825012207;21621;2;0
15;0.10901308059692383;21621;1;1
16;0.11619734764099121;21621;0;1
17;0.12337589263916016;21621;1;1
18;0.13055658340454102;21618;0;-1
19;0.13773846626281738;21622;0;0
20;0.14495372772216797;21622;1;0
21;0.15214061737060547;21620;1;0
22;0.15932345390319824;21619;1;1
23;0.1665053367614746;21621;0;0
24;0.17372775077819824;21622;1;0
25;0.1809077262878418;21621;0;0
26;0.18808555603027344;21621;1;0
27;0.1952652931213379;21623;0;0
28;0.20244741439819336;21622;0;0
29;0.2096259593963623;21619;1;1
30;0.21680355072021484;21620;1;-1
31;0.2239854335784912;21619;1;1
32;0.23117804527282715;21622;0;0
33;0.23836135864257812;21619;0;0
34;0.24553704261779785;21619;0;-1
35;0.25274014472961426;21618;0;0
36;0.25992774963378906;21623;1;-1
37;0.26711130142211914;21619;1;1
38;0.2742915153503418;21613;1;0
39;0.28147315979003906;21621;0;0
40;0.2886531352996826;21619;0;0
41;0.29586148262023926;21621;0;0
42;0.3031022548675537;21621;0;0
43;0.3102843761444092;21621;0;0
44;0.31746459007263184;21618;0;0
45;0.3246440887451172;21621;1;0
46;0.33182406425476074;21623;0;1
47;0.3390069007873535;21623;1;0
48;0.34618616104125977;21622;0;0
49;0.35336852073669434;21622;0;0
50;0.3605620861053467;21621;0;-1
51;0.36774659156799316;21622;1;0
52;0.3749260902404785;21617;0;1
53;0.382112979888916;21621;0;0
54;0.38929271697998047;21624;1;0
55;0.39647531509399414;21620;0;0
56;0.4037027359008789;21621;1;0
57;0.41088199615478516;21621;0;-1
58;0.4180634021759033;21623;0;0
59;0.4252443313598633;21622;0;0
60;0.43242406845092773;21624;1;0
61;0.4396018981933594;21622;1;0
62;0.4467911720275879;21623;0;0
63;0.45398473739624023;21625;1;0
64;0.4611635208129883;21621;0;0
65;0.46834349632263184;21620;1;0
66;0.4755210876464844;21622;0;1
67;0.4826982021331787;21622;1;1
68;0.48987770080566406;21620;0;0
69;0.4970576763153076;21621;0;0
70;0.5042452812194824;21620;0;1
71;0.511427640914917;21619;1;1
72;0.5186104774475098;21620;0;0
73;0.5257906913757324;21620;0;0
74;0.532970666885376;21622;0;0
75;0.5401520729064941;21621;0;0
76;0.5473334789276123;21620;0;1
77;0.5545177459716797;21619;0;1
78;0.5617058277130127;21617;0;0
79;0.5689291954040527;21621;-1;0
80;0.5761129856109619;21620;0;0
81;0.58329176902771;21622;1;1
82;0.5904715061187744;21620;1;0
83;0.5976500511169434;21623;0;0
84;0.6048297882080078;21620;0;0
85;0.6120092868804932;21618;0;0
86;0.6191980838775635;21620;0;0
87;0.626375675201416;21621;0;1
88;0.6335580348968506;21621;0;0
89;0.6407361030578613;21621;0;0
90;0.6479141712188721;21620;1;0
91;0.6551027297973633;21619;0;0
92;0.6622824668884277;21622;0;0
93;0.6694693565368652;21619;1;0
94;0.6766571998596191;21623;0;0
95;0.6838376522064209;21620;1;0
96;0.6910159587860107;21625;0;0
97;0.6983346939086914;21623;0;-1
98;0.7055234909057617;21622;0;1
99;0.7127020359039307;21623;1;0
100;0.71993088722229;21621;1;1
101;0.727813720703125;21621;1;1
102;0.7357602119445801;21622;0;0
103;0.7448811531066895;21622;0;1
104;0.7528302669525146;21618;1;0
105;0.7607743740081787;21620;1;0
106;0.7687211036682129;21620;1;0
107;0.776665210723877;21625;1;0
108;0.7846090793609619;21619;1;0
109;0.7925496101379395;21620;1;0
110;0.8007898330688477;21623;1;0
111;0.8087401390075684;21622;0;0
112;0.8166797161102295;21623;1;0
113;0.8246722221374512;21620;0;0
114;0.8326141834259033;21620;0;0
115;0.8405606746673584;21622;0;0
116;0.8491113185882568;21622;0;0
117;0.8570892810821533;21622;0;0
118;0.8650400638580322;21618;1;1
119;0.8729937076568604;21622;0;0
120;0.880997896194458;21623;1;-1
121;0.8889997005462646;21621;0;0
122;0.8969504833221436;21621;0;0
123;0.9048991203308105;21621;0;-1
124;0.9128575325012207;21617;0;-1
125;0.920842170715332;21622;1;-1
126;0.9288027286529541;21618;0;0
127;0.9367444515228271;21621;1;0
128;0.9446933269500732;21618;0;0
129;0.9526529312133789;21622;1;-1
130;0.9606010913848877;21621;1;1
131;0.9685416221618652;21621;0;1
132;0.9764835834503174;21621;1;0
133;0.9844365119934082;21622;0;1
134;0.9923868179321289;21619;0;0
135;1.0003345012664795;21635;0;-1
136;1.0084941387176514;21620;0;0
137;1.0164449214935303;21619;1;2
138;1.0244393348693848;21621;1;0
139;1.0323867797851562;21622;1;0
140;1.0407116413116455;21623;1;1
141;1.0486669540405273;21620;0;-1
142;1.0566112995147705;21622;0;0
143;1.0645546913146973;21622;1;0
144;1.0724997520446777;21623;0;1
145;1.0804479122161865;21623;0;0
146;1.0883915424346924;21622;0;0
147;1.0963287353515625;21624;0;-1
148;1.104351282119751;21621;0;0
149;1.1122989654541016;21622;1;0
150;1.1202528476715088;21622;1;0
151;1.128249168395996;21622;1;0
152;1.1362617015838623;21628;0;0
153;1.1442644596099854;21622;1;0
154;1.1522328853607178;21623;1;1
155;1.160184621810913;21622;0;0
156;1.1681337356567383;21621;0;0
157;1.1760802268981934;21622;0;0
158;1.184032678604126;21621;0;0
159;1.1919784545898438;21620;0;0
160;1.1999320983886719;21621;0;-1
161;1.2078816890716553;21621;1;0
162;1.2158641815185547;21623;0;0
163;1.2238523960113525;21620;1;-1
164;1.231813669204712;21621;1;1
165;1.2397644519805908;21622;1;0
166;1.2477130889892578;21621;0;1
167;1.2557311058044434;21621;0;-1
168;1.26369309425354;21621;0;0
169;1.27168607711792;21621;1;0
170;1.2796318531036377;21620;0;0
171;1.2875773906707764;21620;1;1
172;1.2955615520477295;21622;0;0
173;1.3036983013153076;21622;1;-1
174;1.3117005825042725;21620;1;0
175;1.3196499347686768;21621;0;0
176;1.32763671875;21618;1;0
177;1.3355846405029297;21621;1;0
178;1.3435842990875244;21620;0;0
179;1.3515899181365967;21620;0;0
180;1.3595361709594727;21621;0;0
181;1.3674871921539307;21622;0;1
182;1.3754346370697021;21623;1;0
183;1.383380651473999;21622;0;1
184;1.3913326263427734;21621;1;0
185;1.3992834091186523;21620;1;0
186;1.4072301387786865;21621;1;0
187;1.415173053741455;21621;1;0
188;1.4231221675872803;21620;1;0
189;1.4311168193817139;21621;0;0
190;1.4390652179718018;21621;0;0
191;1.4470088481903076;21620;1;0
192;1.454960584640503;21621;0;-1
193;1.462939739227295;21621;1;0
194;1.4709622859954834;21623;1;0
195;1.4789836406707764;21620;0;0
196;1.4869322776794434;21623;0;0
197;1.494877815246582;21622;0;0
198;1.5028324127197266;21621;0;1
199;1.510784387588501;21618;0;1
200;1.5187304019927979;21625;0;0
201;1.5267219543457031;21621;0;1
202;1.534667730331421;21620;1;0
203;1.5426170825958252;21623;1;0
204;1.5505709648132324;21621;0;0
205;1.5585606098175049;21623;1;0
206;1.5665113925933838;21620;0;0
207;1.5744624137878418;21622;1;0
208;1.5824120044708252;21622;0;0
209;1.5903708934783936;21623;1;0
210;1.5983924865722656;21620;0;0
211;1.606353521347046;21618;0;0
212;1.6143488883972168;21623;0;0
213;1.623387098312378;21622;0;0
214;1.6313886642456055;21624;1;1
215;1.6393370628356934;21622;0;1
216;1.6472852230072021;21622;0;1
217;1.6552398204803467;21621;0;1
218;1.6631834506988525;21620;1;0
219;1.6711275577545166;21622;1;0
220;1.6790833473205566;21623;0;0
221;1.687028169631958;21622;0;0
222;1.6951594352722168;21621;0;1
223;1.703110694885254;21624;0;-1
224;1.7110710144042969;21621;0;-1
225;1.7190885543823242;21624;0;0
226;1.7270700931549072;21619;0;1
227;1.7350201606750488;21621;0;1
228;1.7429687976837158;21621;0;0
229;1.750990867614746;21624;0;0
230;1.7589960098266602;21621;1;0
231;1.766944169998169;21623;1;0
232;1.7748932838439941;21623;1;0
233;1.7828447818756104;21622;0;1
234;1.7907936573028564;21623;0;0
235;1.7988197803497314;21625;1;0
236;1.8067729473114014;21619;1;0
237;1.8147196769714355;21621;1;-1
238;1.8226706981658936;21620;1;1
239;1.830662727355957;21620;0;0
240;1.8386118412017822;21620;0;0
241;1.8465561866760254;21620;0;0
242;1.8545076847076416;21624;0;0
243;1.8624658584594727;21622;0;0
244;1.870476245880127;21624;1;1
245;1.878427267074585;21621;0;0
246;1.8863739967346191;21621;0;0
247;1.894373893737793;21621;0;0
248;1.902329921722412;21619;0;1
249;1.9102833271026611;21624;1;0
250;1.9182331562042236;21626;0;0
251;1.9262356758117676;21621;-1;0
252;1.9342832565307617;21627;1;1
253;1.942237138748169;21623;0;0
254;1.9501819610595703;21624;0;0
255;1.9581291675567627;21623;0;0
256;1.966078758239746;21622;0;0
257;1.9740345478057861;21623;0;1
258;1.9819798469543457;21623;1;0
259;1.9899308681488037;21624;1;0
260;1.997875690460205;21626;0;0
261;2.0058207511901855;21621;0;0
262;2.0137674808502197;21625;1;0
263;2.021723985671997;21623;0;0
264;2.02970290184021;21624;0;0
265;2.0382208824157715;21623;1;1
266;2.0462989807128906;21623;0;1
267;2.0543007850646973;21623;0;0
268;2.062248945236206;21622;0;1
269;2.0702004432678223;21624;1;0
270;2.078145980834961;21626;1;0
271;2.0860981941223145;21624;0;0
272;2.094050168991089;21625;0;0
273;2.101999282836914;21625;0;0
274;2.10994815826416;21624;1;0
275;2.117891788482666;21623;1;0
276;2.1258413791656494;21620;1;0
277;2.1338322162628174;21622;0;0
278;2.141782283782959;21624;1;1
279;2.1497304439544678;21622;0;0
280;2.1576714515686035;21624;0;0
281;2.1656205654144287;21626;1;0
282;2.1736299991607666;21623;1;-1
283;2.181640625;21627;0;-1
284;2.189589262008667;21622;1;0
285;2.197532892227173;21622;0;1
286;2.2054834365844727;21623;0;0
287;2.2134299278259277;21624;0;0
288;2.2213823795318604;21623;0;0
289;2.2293312549591064;21621;0;1
290;2.237276792526245;21624;0;1
291;2.2452244758605957;21626;1;1
292;2.2531847953796387;21621;0;0
293;2.2611382007598877;21625;0;0
294;2.2690939903259277;21623;0;0
295;2.277041435241699;21621;1;1
296;2.2849903106689453;21622;0;1
297;2.292935848236084;21624;0;0
298;2.3010993003845215;21622;1;0
299;2.3091156482696533;21620;0;0
300;2.317065715789795;21624;1;1
301;2.325021266937256;21621;0;1
302;2.333014488220215;21620;1;0
303;2.3410232067108154;21623;1;0
304;2.3494675159454346;21625;1;1
305;2.357457399368286;21625;1;0
306;2.365412712097168;21623;1;0
307;2.3733668327331543;21623;1;0
308;2.3813159465789795;21624;0;1
309;2.3892691135406494;21624;1;0
310;2.3972198963165283;21623;0;-1
311;2.4051759243011475;21626;0;1
312;2.413137197494507;21623;1;0
313;2.4210901260375977;21622;0;1
314;2.4291138648986816;21622;1;1
315;2.4371368885040283;21622;0;0
316;2.4450907707214355;21626;1;0
317;2.453098773956299;21626;1;1
318;2.461052656173706;21623;1;0
319;2.469052791595459;21624;0;2
320;2.4770143032073975;21623;0;1
321;2.484959602355957;21622;1;0
322;2.4929044246673584;21621;0;0
323;2.5019912719726562;21624;1;0
324;2.50997257232666;21621;0;0
325;2.5179145336151123;21624;1;0
326;2.525859832763672;21621;0;0
327;2.5338451862335205;21621;1;1
328;2.541795253753662;21620;0;0
329;2.549741744995117;21620;0;1
330;2.557691812515259;21625;1;0
331;2.5656325817108154;21624;0;1
332;2.5736498832702637;21624;0;1
333;2.5816495418548584;21623;1;0
334;2.589601516723633;21622;1;0
335;2.597546100616455;21623;0;0
336;2.6054940223693848;21622;1;1
337;2.6134376525878906;21619;1;1
338;2.6213865280151367;21624;1;-1
339;2.6293368339538574;21624;0;0
340;2.637327194213867;21619;1;1
341;2.6452760696411133;21627;1;0
342;2.653225898742676;21624;0;0
343;2.66117525100708;21625;0;0
344;2.66912579536438;21625;0;-1
345;2.6770761013031006;21623;1;0
346;2.6850266456604004;21623;1;1
347;2.692990303039551;21626;0;0
348;2.7010271549224854;21626;1;0
349;2.7090349197387695;21620;1;0
350;2.716986894607544;21622;0;0
351;2.724931240081787;21625;1;1
352;2.7329163551330566;21624;1;0
353;2.7409234046936035;21623;1;1
354;2.7489256858825684;21624;0;0
355;2.756897449493408;21622;0;0
356;2.764843225479126;21624;1;0
357;2.7727909088134766;21621;1;0
358;2.7807421684265137;21623;0;0
359;2.788689613342285;21624;1;1
360;2.796705484390259;21625;1;1
361;2.8046724796295166;21624;-1;0
362;2.8126261234283447;21621;0;0
363;2.8205742835998535;21622;1;1
364;2.8285224437713623;21623;0;0
365;2.836510181427002;21624;0;1
366;2.8444557189941406;21621;0;0
367;2.852411985397339;21625;0;1
368;2.8603665828704834;21625;1;0
369;2.8683857917785645;21624;0;-1
370;2.876342296600342;21622;0;1
371;2.8843436241149902;21624;1;0
372;2.892289638519287;21621;1;-1
373;2.9002468585968018;21625;1;0
374;2.908200979232788;21625;1;0
375;2.9162087440490723;21625;0;0
376;2.924215078353882;21621;0;0
377;2.9321649074554443;21622;0;1
378;2.940159559249878;21624;0;0
379;2.9481053352355957;21622;1;0
380;2.9560632705688477;21623;1;0
381;2.964022636413574;21624;1;1
382;2.9719698429107666;21623;0;1
383;2.979919910430908;21622;0;0
384;2.9878671169281006;21622;0;0
385;2.9958231449127197;21622;0;0
386;3.003774881362915;21620;-1;0
387;3.011726140975952;21626;1;0
388;3.0196821689605713;21625;0;0
389;3.0276384353637695;21625;1;0
390;3.036215305328369;21625;1;0
391;3.044337272644043;21622;0;0
392;3.0522966384887695;21624;0;1
393;3.0602457523345947;21623;0;0
394;3.068190574645996;21623;1;0
395;3.0762007236480713;21624;0;0
396;3.084198236465454;21623;1;0
397;3.092156410217285;21624;0;1
398;3.100105047225952;21624;0;0
399;3.108051300048828;21625;1;0
400;3.11601185798645;21621;1;0
401;3.1239633560180664;21624;0;0
402;3.1319169998168945;21625;0;0
403;3.139904260635376;21622;1;0
404;3.147848129272461;21622;0;0
405;3.155803918838501;21623;-1;1
406;3.163756847381592;21624;0;0
407;3.171708106994629;21625;0;0
408;3.1796610355377197;21621;1;0
409;3.1876068115234375;21625;0;-1
410;3.1955642700195312;21623;-1;1
411;3.2035770416259766;21625;0;1
412;3.211580514907837;21623;0;0
413;3.2195253372192383;21622;-1;1
414;3.227478504180908;21626;1;1
415;3.2354280948638916;21623;0;-1
416;3.2434170246124268;21622;0;0
417;3.251366138458252;21624;1;1
418;3.259314775466919;21625;1;2
419;3.267261505126953;21622;0;0
420;3.2752087116241455;21626;1;1
421;3.283158779144287;21622;1;1
422;3.291137456893921;21623;1;0
423;3.2991647720336914;21625;1;0
424;3.3071234226226807;21626;1;0
425;3.315091848373413;21623;0;1
426;3.323110342025757;21623;1;0
427;3.3310623168945312;21625;1;1
428;3.3391001224517822;21620;1;0
429;3.3470470905303955;21625;0;0
430;3.3550140857696533;21625;0;0
431;3.3629629611968994;21622;1;0
432;3.3709728717803955;21625;1;0
433;3.378977060317993;21624;0;0
434;3.3880369663238525;21625;1;0
435;3.3959944248199463;21625;1;0
436;3.4039387702941895;21627;0;0
437;3.411881446838379;21622;0;-1
438;3.4198319911956787;21624;1;0
439;3.4277758598327637;21624;0;0
440;3.4357242584228516;21622;1;0
441;3.4437220096588135;21623;0;0
442;3.451725959777832;21626;0;1
443;3.459681510925293;21626;0;0
444;3.4676222801208496;21623;1;0
445;3.4755663871765137;21623;0;0
446;3.483567714691162;21624;1;0
447;3.4915592670440674;21621;0;0
448;3.499504327774048;21626;1;0
449;3.507455348968506;21624;0;0
450;3.515403985977173;21621;0;0
451;3.5233490467071533;21623;1;1
452;3.5313003063201904;21623;-1;0
453;3.5392913818359375;21622;0;0
454;3.547245502471924;21622;0;0
455;3.5551984310150146;21623;1;0
456;3.5631468296051025;21626;1;0
457;3.571091890335083;21626;0;0
458;3.5791025161743164;21624;1;0
459;3.587050437927246;21624;1;0
460;3.5950021743774414;21624;1;-1
461;3.602959156036377;21624;1;0
462;3.6109654903411865;21624;0;-1
463;3.618969678878784;21624;0;0
464;3.6269187927246094;21623;1;1
465;3.6348698139190674;21622;1;1
466;3.642854690551758;21624;1;0
467;3.6508047580718994;21623;0;0
468;3.65875506401062;21626;1;1
469;3.6667003631591797;21624;1;0
470;3.6746487617492676;21622;0;0
471;3.68259596824646;21625;0;0
472;3.690544605255127;21626;1;0
473;3.698514223098755;21626;1;0
474;3.706463575363159;21623;0;0
475;3.714416742324829;21623;1;1
476;3.7223682403564453;21623;1;1
477;3.7303168773651123;21623;0;0
478;3.7382609844207764;21624;0;0
479;3.746321678161621;21625;1;-1
480;3.754338026046753;21622;1;0
481;3.7622880935668945;21622;0;0
482;3.770233631134033;21625;0;1
483;3.7781822681427;21626;1;0
484;3.786181926727295;21625;0;1
485;3.794144630432129;21623;0;1
486;3.802183151245117;21624;1;1
487;3.810138702392578;21625;0;0
488;3.8180861473083496;21627;1;0
489;3.826042652130127;21623;1;0
490;3.8339967727661133;21626;0;0
491;3.8419904708862305;21622;0;1
492;3.850504159927368;21623;0;0
493;3.8584885597229004;21623;0;0
494;3.8664450645446777;21622;0;0
495;3.8743932247161865;21622;1;1
496;3.882345676422119;21624;0;0
497;3.8903000354766846;21621;0;1
498;3.898249387741089;21624;0;0
499;3.90627121925354;21624;1;0
500;3.914278984069824;21625;1;0
501;3.9222300052642822;21624;0;0
502;3.9301841259002686;21624;0;0
503;3.9381296634674072;21623;0;0
504;3.9461252689361572;21624;1;0
505;3.9540815353393555;21624;1;0
506;3.9620323181152344;21629;0;0
507;3.9699866771698;21624;0;1
508;3.9779343605041504;21626;1;0
509;3.9858899116516113;21621;1;0
510;3.993839979171753;21623;1;0
511;4.0017876625061035;21624;1;0
512;4.0097596645355225;21625;0;0
513;4.017715930938721;21622;0;0
514;4.025737524032593;21624;0;0
515;4.033693552017212;21622;0;0
516;4.042276620864868;21628;0;-1
517;4.050295114517212;21624;1;0
518;4.058263063430786;21625;1;0
519;4.06633186340332;21626;0;0
520;4.0743420124053955;21625;0;1
521;4.08229923248291;21623;0;0
522;4.090249300003052;21624;0;1
523;4.09820556640625;21623;0;0
524;4.106220245361328;21625;1;0
525;4.114285945892334;21625;1;0
526;4.122248888015747;21626;1;1
527;4.130210638046265;21623;1;0
528;4.138213157653809;21623;0;0
529;4.14628005027771;21625;0;0
530;4.1542956829071045;21624;0;0
531;4.162254571914673;21626;1;0
532;4.170213222503662;21628;0;1
533;4.178206920623779;21623;0;1
534;4.1862218379974365;21627;1;1
535;4.194263219833374;21627;0;0
536;4.2022271156311035;21625;1;1
537;4.210189580917358;21624;0;0
538;4.218153953552246;21623;0;0
539;4.226173162460327;21625;0;1
540;4.23415207862854;21623;0;0
541;4.242112874984741;21624;0;0
542;4.2501091957092285;21627;0;-1
543;4.258077621459961;21628;0;0
544;4.2671403884887695;21624;1;-1
545;4.275116205215454;21625;1;0
546;4.2830774784088135;21626;0;0
547;4.291035175323486;21630;1;0
548;4.299260377883911;21627;0;0
549;4.307236909866333;21627;0;0
550;4.315194368362427;21626;1;-1
551;4.323158025741577;21624;0;0
552;4.331113815307617;21625;0;-1
553;4.339076995849609;21626;0;1
554;4.347075462341309;21625;0;0
555;4.355040550231934;21624;0;0
556;4.3630077838897705;21627;0;1
557;4.371047496795654;21624;0;0
558;4.379056453704834;21626;1;0
559;4.38701605796814;21625;1;0
560;4.394975423812866;21626;1;0
561;4.402934789657593;21625;0;1
562;4.410956382751465;21622;0;0
563;4.418967247009277;21624;0;1
564;4.426931142807007;21624;1;1
565;4.434890270233154;21627;1;1
566;4.44284725189209;21623;1;1
567;4.4508819580078125;21624;0;0
568;4.458844423294067;21625;0;0
569;4.4668049812316895;21624;0;0
570;4.474762439727783;21626;1;0
571;4.4827187061309814;21625;1;0
572;4.490680932998657;21624;0;0
573;4.4986395835876465;21624;0;-1
574;4.506603956222534;21624;1;-1
575;4.514572620391846;21625;0;1
576;4.522534370422363;21627;0;0
577;4.530504941940308;21626;1;0
578;4.538464307785034;21623;0;0
579;4.546425104141235;21623;0;0
580;4.554433584213257;21626;1;0
581;4.562397718429565;21624;1;0
582;4.570356845855713;21625;0;0
583;4.578372955322266;21626;1;0
584;4.586339950561523;21628;1;0
585;4.594350337982178;21623;1;1
586;4.60231351852417;21624;0;1
587;4.610281229019165;21626;1;0
588;4.618241548538208;21626;0;0
589;4.626258611679077;21625;2;1
590;4.634283542633057;21626;0;0
591;4.64224648475647;21623;0;0
592;4.650237560272217;21627;1;0
593;4.658207178115845;21624;0;-1
594;4.666226387023926;21626;0;0
595;4.674238920211792;21624;1;0
596;4.6821980476379395;21623;0;1
597;4.69015645980835;21626;1;0
598;4.698368787765503;21625;0;0
599;4.7063329219818115;21626;0;0
600;4.714344501495361;21623;1;0
601;4.722306251525879;21626;1;0
602;4.730270862579346;21624;0;0
603;4.738229274749756;21629;1;0
604;4.746244430541992;21624;0;0
605;4.754304647445679;21626;0;-1
606;4.762277603149414;21620;1;0
607;4.770236968994141;21622;0;1
608;4.778191328048706;21624;1;0
609;4.786206245422363;21626;0;0
610;4.794216156005859;21622;2;0
611;4.8022966384887695;21626;1;0
612;4.810269117355347;21625;0;1
