;Time;Thrust;BEM pressure;N2O pressure;N2OWeigth
0;0.0;708;5;32414;17966
1;0.015966415405273438;669;3;32420;17952
2;0.030058860778808594;669;3;32412;17940
3;0.04420351982116699;669;4;32420;17947
4;0.05840778350830078;670;4;32421;17958
5;0.07265353202819824;669;4;32425;17966
6;0.0868079662322998;670;3;32425;17976
7;0.10096549987792969;670;4;32416;17981
8;0.1152040958404541;669;4;32417;17981
9;0.12935256958007812;669;3;32410;17972
10;0.14359211921691895;670;4;32420;17967
11;0.15781450271606445;669;4;32420;17964
12;0.17207789421081543;670;4;32417;17959
13;0.18626070022583008;669;4;32410;17958
14;0.20081114768981934;669;4;32417;17956
15;0.2149977684020996;669;4;32430;17952
16;0.22916007041931152;669;3;32418;17954
17;0.24332261085510254;670;4;32411;17971
18;0.25751829147338867;670;4;32417;17988
19;0.2717316150665283;669;4;32416;17989
20;0.28595638275146484;668;4;32424;17973
21;0.3078608512878418;670;4;32414;17968
22;0.32213830947875977;670;3;32426;17962
23;0.33640193939208984;670;4;32414;17951
24;0.35057830810546875;669;3;32400;17937
25;0.36484289169311523;669;4;32422;17937
26;0.37901949882507324;669;4;32420;17957
27;0.3931849002838135;670;4;32428;17980
28;0.4073765277862549;669;4;32423;17996
29;0.42163920402526855;669;4;32412;17991
30;0.4358513355255127;670;3;32410;17979
31;0.45002198219299316;669;4;32413;17961
32;0.4642326831817627;670;3;32411;17942
33;0.4783930778503418;668;2;32423;17935
34;0.4927175045013428;670;4;32430;17929
35;0.5069432258605957;669;4;32438;17938
36;0.5211846828460693;669;4;32420;17959
37;0.5354452133178711;669;3;32413;17983
38;0.5496246814727783;670;3;32415;17994
39;0.5639393329620361;670;3;32413;17994
40;0.5782155990600586;670;3;32426;17977
41;0.5925400257110596;669;3;32420;17962
42;0.6067237854003906;669;4;32415;17952
43;0.6209383010864258;669;4;32424;17945
44;0.6395654678344727;669;4;32424;17946
45;0.6582045555114746;669;4;32407;17954
46;0.677027702331543;670;3;32414;17985
47;0.7072858810424805;669;4;32412;17985
48;0.7253110408782959;669;4;32422;17968
49;0.739520788192749;671;4;32419;17953
50;0.7537062168121338;670;4;32424;17947
51;0.767974853515625;670;4;32413;17942
52;0.7822315692901611;669;3;32426;17947
53;0.7964150905609131;669;4;32412;17956
54;0.8106405735015869;670;4;32410;17972
55;0.8248531818389893;670;4;32419;17985
56;0.8391017913818359;669;4;32413;17992
57;0.8533334732055664;670;3;32426;17982
58;0.8675251007080078;670;3;32420;17965
59;0.881706714630127;669;3;32425;17951
60;0.8959722518920898;669;3;32421;17946
61;0.9101576805114746;670;4;32416;17944
62;0.9245152473449707;670;5;32405;17945
63;0.9386999607086182;670;4;32405;17964
64;0.9529523849487305;670;4;32420;17984
65;0.9671592712402344;670;4;32410;18007
66;0.9813587665557861;669;4;32419;18005
67;0.9956421852111816;670;4;32413;17983
68;1.0098419189453125;669;3;32409;17951
69;1.0257883071899414;669;4;32418;17939
70;1.0399620532989502;669;3;32422;17935
71;1.0541596412658691;670;4;32413;17943
72;1.0684282779693604;670;3;32422;17960
73;1.0827696323394775;669;4;32428;17983
74;1.096947431564331;669;3;32429;18000
75;1.1111857891082764;670;3;32417;18005
76;1.1254372596740723;670;3;32424;17991
77;1.1395769119262695;670;3;32422;17964
78;1.1537566184997559;670;3;32396;17944
79;1.1680090427398682;670;4;32422;17935
80;1.1845207214355469;670;3;32413;17944
81;1.1986980438232422;670;4;32407;17966
82;1.212953805923462;670;4;32428;17974
83;1.2273523807525635;669;4;32420;17984
84;1.2416460514068604;669;3;32413;17990
85;1.2560105323791504;670;4;32429;17997
86;1.2701821327209473;670;3;32424;17983
87;1.2844858169555664;670;4;32418;17956
88;1.2986693382263184;669;4;32407;17942
89;1.3128118515014648;670;4;32417;17944
90;1.326995611190796;669;4;32427;17963
91;1.3412361145019531;669;3;32421;17973
92;1.3554718494415283;670;3;32414;17977
93;1.369690179824829;670;4;32423;17973
94;1.3838658332824707;670;3;32415;17976
95;1.3980865478515625;670;4;32411;17986
96;1.4122991561889648;669;4;32421;17984
97;1.4264578819274902;669;4;32427;17967
98;1.4434888362884521;670;3;32408;17952
99;1.462172031402588;669;4;32413;17965
100;1.4807631969451904;670;4;32406;17961
101;1.5034048557281494;670;4;32415;17963
102;1.528425693511963;670;4;32415;17971
103;1.5435559749603271;670;4;32427;17978
104;1.557762622833252;670;4;32425;17974
105;1.5721070766448975;670;3;32420;17961
106;1.5863187313079834;669;4;32410;17955
107;1.6005563735961914;669;4;32408;17956
108;1.6148431301116943;670;4;32420;17961
109;1.6290698051452637;670;4;32424;17964
110;1.6432974338531494;670;4;32425;17965
111;1.6575031280517578;670;4;32421;17970
112;1.6718249320983887;669;4;32425;17976
113;1.68605637550354;670;3;32418;17978
114;1.7002692222595215;670;4;32420;17971
115;1.7146177291870117;669;3;32421;17959
116;1.728806495666504;670;4;32414;17954
117;1.7430322170257568;671;4;32405;17956
118;1.7572050094604492;670;4;32403;17960
119;1.771491527557373;669;3;32426;17960
120;1.78572416305542;670;3;32415;17967
121;1.7999157905578613;669;4;32423;17975
122;1.8141303062438965;670;3;32417;17972
123;1.8283400535583496;670;3;32409;17965
124;1.8426268100738525;670;4;32417;17958
125;1.8568072319030762;670;3;32424;17955
126;1.8710360527038574;669;4;32431;17959
127;1.885246992111206;670;4;32430;17958
128;1.9077956676483154;670;4;32404;17949
129;1.9225201606750488;670;4;32410;17957
130;1.9367070198059082;669;3;32411;17965
131;1.9509305953979492;669;4;32412;17964
132;1.9652223587036133;670;3;32411;17964
133;1.9794690608978271;670;4;32426;17956
134;1.9936494827270508;670;3;32428;17956
135;2.0078132152557373;670;4;32416;17957
136;2.022063970565796;670;4;32415;17959
137;2.036224603652954;669;4;32413;17956
138;2.0504202842712402;669;3;32418;17948
139;2.0646917819976807;670;3;32429;17955
140;2.078941583633423;670;3;32426;17963
141;2.093144178390503;670;3;32415;17969
142;2.107335090637207;670;4;32417;17975
143;2.121595621109009;670;4;32410;17974
144;2.135777235031128;669;4;32424;17971
145;2.149945020675659;670;3;32418;17966
146;2.1641435623168945;670;4;32416;17957
147;2.178354263305664;670;3;32421;17961
148;2.192617893218994;670;4;32426;17957
149;2.206758499145508;670;4;32414;17962
150;2.221118450164795;670;4;32421;17968
151;2.236989974975586;670;4;32430;17973
152;2.2558040618896484;671;3;32405;17965
153;2.2745163440704346;671;4;32418;17962
154;2.293123483657837;670;3;32410;17965
155;2.3118317127227783;669;4;32408;17958
156;2.3304710388183594;670;4;32423;17951
157;2.349111318588257;669;4;32420;17946
158;2.3677353858947754;670;4;32423;17957
159;2.3863558769226074;669;3;32431;17970
160;2.4050891399383545;669;5;32420;17974
161;2.423753499984741;669;4;32421;17980
162;2.4424984455108643;670;3;32416;17976
163;2.461444854736328;671;3;32421;17974
164;2.48016095161438;670;4;32416;17960
165;2.49885630607605;669;3;32407;17946
166;2.520785331726074;670;4;32408;17953
167;2.5394716262817383;670;4;32415;17979
168;2.5580387115478516;670;4;32421;17988
169;2.576698064804077;669;4;32423;17960
170;2.595252513885498;670;4;32425;17971
171;2.6138687133789062;670;4;32414;17950
172;2.632573127746582;669;3;32430;17945
173;2.6512441635131836;670;3;32415;17951
174;2.669825792312622;670;4;32428;17970
175;2.6884450912475586;671;5;32413;17987
176;2.718200445175171;670;4;32408;17978
177;2.7367687225341797;670;4;32420;17961
178;2.7523975372314453;670;4;32413;17953
179;2.766594171524048;669;4;32429;17945
180;2.780735969543457;670;4;32430;17944
181;2.7949867248535156;670;4;32405;17957
182;2.809211254119873;671;4;32427;17970
183;2.823404312133789;671;4;32418;17984
184;2.837559700012207;669;4;32414;17987
185;2.851740598678589;670;4;32423;17980
186;2.865995168685913;671;4;32423;17968
187;2.8801209926605225;669;4;32410;17957
188;2.894304037094116;669;4;32418;17951
189;2.9084856510162354;669;3;32407;17953
190;2.9227731227874756;670;3;32412;17956
191;2.9369518756866455;670;4;32414;17967
192;2.9511916637420654;670;4;32416;17977
193;2.965444564819336;670;5;32412;17979
194;2.979663372039795;670;4;32413;17976
195;2.993928909301758;670;3;32401;17969
196;3.008173704147339;670;4;32417;17966
197;3.022421360015869;670;3;32412;17963
198;3.036614418029785;669;4;32405;17958
199;3.050790786743164;670;3;32408;17961
200;3.065063714981079;669;4;32423;17966
201;3.079388380050659;669;3;32410;17968
202;3.093602180480957;671;3;32406;17968
203;3.1165661811828613;671;3;32416;17965
204;3.1306917667388916;670;4;32418;17964
205;3.144967555999756;670;4;32413;17965
206;3.1592233180999756;669;4;32415;17960
207;3.173488140106201;670;4;32412;17958
208;3.1876699924468994;670;3;32421;17957
209;3.2019736766815186;669;3;32418;17958
210;3.2161662578582764;669;3;32410;17957
211;3.230349063873291;670;4;32416;17956
212;3.244558811187744;669;4;32411;17956
213;3.2587265968322754;670;4;32423;17963
214;3.27299427986145;670;4;32415;17967
215;3.287155866622925;670;4;32415;17967
216;3.301365613937378;670;4;32411;17963
217;3.315619468688965;670;3;32420;17959
218;3.329803228378296;670;3;32410;17950
219;3.3440070152282715;670;4;32419;17951
220;3.358243703842163;670;3;32420;17957
221;3.372500419616699;669;4;32422;17965
222;3.3865890502929688;670;4;32419;17970
223;3.4007720947265625;670;4;32428;17977
224;3.415031671524048;670;4;32426;17978
225;3.4292643070220947;670;3;32413;17969
226;3.4441380500793457;671;4;32408;17951
227;3.4628233909606934;670;4;32420;17941
228;3.481445789337158;670;4;32408;17952
229;3.500092029571533;670;4;32416;17959
230;3.5186965465545654;670;3;32414;17967
231;3.5373780727386475;669;4;32410;17967
232;3.556013345718384;670;4;32410;17961
233;3.5747175216674805;670;3;32411;17949
234;3.5933239459991455;670;3;32419;17942
235;3.611980438232422;670;4;32424;17946
236;3.630520820617676;668;4;32427;17957
237;3.649339199066162;670;4;32413;17972
238;3.667942523956299;669;4;32419;17981
239;3.6866111755371094;669;4;32412;17976
240;3.705233573913574;670;4;32420;17963
241;3.723849058151245;671;3;32431;17951
242;3.742525339126587;670;3;32422;17959
243;3.7610878944396973;670;3;32408;17962
244;3.7797434329986572;669;4;32408;17976
245;3.7983498573303223;670;4;32412;17979
246;3.817012071609497;670;4;32425;17969
247;3.8356456756591797;670;3;32411;17961
248;3.8542213439941406;670;4;32410;17966
249;3.872868537902832;671;4;32411;17968
250;3.89148211479187;670;3;32416;17976
251;3.9204025268554688;670;4;32411;17969
252;3.9423627853393555;670;4;32415;17962
253;3.956589460372925;669;4;32415;17958
254;3.970773458480835;670;4;32400;17958
255;3.9850423336029053;669;3;32418;17960
256;3.9992470741271973;670;3;32414;17962
257;4.013406991958618;670;4;32413;17973
258;4.027562618255615;670;2;32414;17978
259;4.041808605194092;670;4;32410;17973
260;4.055948257446289;669;3;32417;17968
261;4.070101261138916;670;3;32416;17961
262;4.084274768829346;670;4;32410;17952
263;4.098434686660767;670;4;32415;17958
264;4.112697601318359;670;4;32416;17963
265;4.126851558685303;670;4;32412;17970
266;4.14124321937561;671;4;32410;17976
267;4.155478000640869;670;4;32416;17983
268;4.1696319580078125;670;4;32416;17976
269;4.183904647827148;670;3;32418;17972
270;4.198129415512085;669;4;32418;17971
271;4.212392330169678;670;3;32414;17960
272;4.226572036743164;670;3;32412;17960
273;4.240746021270752;670;4;32416;17959
274;4.255024671554565;669;3;32420;17964
275;4.269242525100708;670;4;32410;17970
276;4.283440351486206;670;4;32418;17972
277;4.2976579666137695;670;3;32411;17964
278;4.320985317230225;670;4;32420;17959
279;4.335258960723877;670;4;32413;17959
280;4.349465847015381;670;3;32417;17957
281;4.363664627075195;670;4;32418;17959
282;4.3777782917022705;669;4;32412;17960
283;4.392031192779541;670;3;32418;17965
284;4.406198978424072;670;4;32408;17970
285;4.420358896255493;669;3;32413;17970
286;4.434635639190674;670;3;32413;17965
287;4.448748350143433;671;4;32413;17960
288;4.462974309921265;669;2;32418;17955
289;4.47718620300293;671;3;32401;17954
290;4.491426944732666;670;3;32405;17954
291;4.505675792694092;669;4;32401;17960
292;4.519847631454468;669;4;32403;17966
293;4.534057378768921;669;3;32427;17971
294;4.548261404037476;669;5;32407;17973
295;4.562516212463379;670;3;32413;17977
296;4.576716661453247;669;4;32408;17966
297;4.590912580490112;669;3;32410;17960
298;4.605182647705078;670;4;32410;17955
299;4.619386434555054;671;4;32413;17955
300;4.633491277694702;671;4;32408;17957
301;4.647630214691162;670;4;32423;17960
302;4.665512800216675;669;4;32412;17965
303;4.68410849571228;669;4;32413;17976
304;4.702735900878906;669;3;32411;17975
305;4.721356391906738;670;4;32414;17961
306;4.739959955215454;670;3;32416;17953
307;4.758432388305664;670;5;32406;17955
308;4.777092933654785;670;3;32432;17957
309;4.795738458633423;670;4;32413;17962
310;4.814276933670044;670;3;32414;17970
311;4.832951784133911;670;4;32418;17972
312;4.851563215255737;670;4;32425;17963
313;4.8702006340026855;670;4;32429;17961
314;4.8887293338775635;670;4;32408;17950
315;4.907384634017944;671;3;32417;17959
316;4.926022291183472;671;4;32407;17968
317;4.944702863693237;670;2;32411;17974
318;4.9632203578948975;669;3;32402;17979
319;4.981927156448364;670;4;32424;17980
320;5.000573635101318;670;3;32413;17969
321;5.019229173660278;670;3;32413;17954
322;5.037801742553711;670;4;32408;17947
323;5.056430339813232;669;4;32410;17955
324;5.075094699859619;670;3;32414;17964
325;5.093736171722412;670;4;32417;17981
326;5.12335991859436;670;3;32407;17985
327;5.1419923305511475;669;3;32418;17972
328;5.158766984939575;670;4;32420;17956
329;5.173028945922852;670;3;32420;17944
330;5.187222003936768;670;4;32394;17942
331;5.201541900634766;671;4;32423;17953
332;5.215800762176514;671;3;32409;17966
333;5.229947566986084;670;3;32414;17972
334;5.244187355041504;670;4;32406;17976
335;5.25840425491333;670;3;32413;17973
336;5.2727391719818115;671;4;32416;17969
337;5.28694486618042;669;3;32426;17964
338;5.303523778915405;669;4;32415;17961
339;5.317667722702026;670;4;32415;17954
340;5.3318235874176025;669;4;32406;17950
341;5.346019506454468;670;4;32418;17959
342;5.3601484298706055;669;4;32409;17970
343;5.374410152435303;671;4;32419;17972
344;5.388564109802246;669;3;32411;17967
345;5.402789115905762;670;3;32406;17968
346;5.416936874389648;671;4;32413;17967
347;5.431107759475708;670;3;32413;17965
348;5.445340633392334;669;3;32414;17959
349;5.459482431411743;670;4;32409;17952
350;5.473657608032227;670;4;32412;17951
351;5.487899303436279;670;4;32416;17952
352;5.502149343490601;670;3;32408;17962
353;5.52501654624939;670;3;32402;17968
354;5.539261341094971;670;4;32420;17971
355;5.553445100784302;670;3;32414;17973
356;5.567598104476929;670;4;32409;17969
357;5.581959962844849;669;4;32407;17962
358;5.596142768859863;670;3;32397;17958
359;5.610301971435547;670;4;32412;17954
360;5.624549865722656;670;3;32419;17949
361;5.638671875;670;3;32401;17955
362;5.652936697006226;670;4;32400;17968
363;5.66711163520813;671;4;32406;17978
364;5.681358575820923;670;4;32421;17980
365;5.695619583129883;670;3;32411;17975
366;5.709789514541626;670;4;32422;17964
367;5.723973512649536;670;4;32402;17956
368;5.738215446472168;670;3;32417;17955
369;5.752443313598633;670;3;32409;17953
370;5.76659631729126;670;4;32418;17955
371;5.780770301818848;671;3;32413;17960
372;5.795056343078613;670;3;32422;17977
373;5.8092732429504395;669;3;32420;17977
374;5.823448896408081;670;5;32403;17974
375;5.837627172470093;671;3;32409;17968
376;5.851837158203125;670;3;32411;17959
377;5.867964744567871;670;4;32416;17957
378;5.886608600616455;670;5;32408;17964
379;5.905215263366699;670;4;32415;17970
380;5.92384672164917;670;3;32437;17979
381;5.9425153732299805;671;4;32416;17980
382;5.960969924926758;670;4;32413;17966
383;5.979762554168701;670;3;32413;17953
384;5.998419284820557;670;4;32409;17955
385;6.017077922821045;671;3;32418;17975
386;6.035804510116577;671;3;32414;17985
387;6.054401159286499;671;3;32412;17976
388;6.073019742965698;671;3;32409;17969
389;6.091748476028442;670;3;32406;17961
390;6.1104371547698975;670;3;32412;17956
391;6.129030466079712;670;3;32408;17963
392;6.1476922035217285;669;3;32421;17983
393;6.166342735290527;670;3;32418;17995
394;6.185086727142334;671;5;32412;17978
395;6.203746318817139;670;4;32411;17956
396;6.222432613372803;670;4;32413;17945
397;6.241057395935059;670;4;32409;17946
398;6.259710073471069;671;4;32415;17967
399;6.278498649597168;670;4;32411;17994
400;6.297240257263184;670;4;32408;17995
401;6.32727313041687;670;4;32402;17962
402;6.345999717712402;671;4;32422;17932
403;6.364229202270508;670;4;32415;17927
404;6.37852931022644;671;4;32418;17942
405;6.392876148223877;671;4;32418;17964
406;6.407062292098999;670;3;32411;17984
407;6.421313285827637;670;3;32415;18002
408;6.4356091022491455;671;3;32402;18003
409;6.449801206588745;671;3;32392;17987
410;6.464021921157837;670;4;32427;17963
411;6.478271961212158;670;4;32415;17942
412;6.492563962936401;670;4;32410;17934
413;6.506750822067261;671;4;32408;17941
414;6.520956754684448;671;4;32408;17960
415;6.5352418422698975;669;4;32419;17978
416;6.54947566986084;670;4;32412;17982
417;6.5637366771698;670;3;32412;17991
418;6.577984571456909;670;3;32405;17986
419;6.592273473739624;671;4;32423;17972
420;6.606529712677002;670;3;32405;17956
421;6.62071681022644;670;4;32405;17942
422;6.635018587112427;671;4;32410;17947
423;6.651512384414673;669;4;32424;17956
424;6.665839433670044;671;4;32415;17965
425;6.6800217628479;671;4;32409;17970
426;6.69423246383667;670;3;32409;17969
427;6.7084267139434814;670;4;32408;17970
428;6.7313172817230225;670;4;32413;17972
429;6.7455971240997314;670;4;32409;17967
430;6.759787082672119;671;4;32408;17958
431;6.77397894859314;671;5;32402;17952
432;6.788244247436523;670;3;32416;17953
433;6.80251407623291;671;4;32403;17956
434;6.8167030811309814;671;4;32415;17965
435;6.830925226211548;670;3;32412;17970
436;6.845221281051636;671;3;32403;17976
437;6.859442234039307;671;4;32415;17979
438;6.873645305633545;670;3;32428;17983
439;6.887802362442017;670;4;32399;17981
440;6.902071475982666;671;4;32398;17973
441;6.916259288787842;671;3;32414;17961
442;6.930441379547119;670;4;32404;17955
443;6.944720268249512;671;4;32414;17956
444;6.9589643478393555;671;4;32404;17960
445;6.9731714725494385;670;4;32414;17969
446;6.987429618835449;670;4;32413;17980
447;7.001721620559692;671;3;32407;17982
448;7.015991449356079;670;4;32415;17982
449;7.030194520950317;670;3;32410;17973
450;7.04452657699585;670;4;32413;17960
451;7.058722496032715;670;3;32415;17949
452;7.077211380004883;669;4;32415;17947
453;7.09595799446106;670;3;32405;17958
454;7.11467981338501;671;4;32406;17971
455;7.133211612701416;670;4;32410;17977
456;7.151897192001343;670;4;32420;17974
457;7.170655965805054;671;4;32414;17967
458;7.1894004344940186;671;3;32410;17956
459;7.208021402359009;671;4;32409;17952
460;7.22671914100647;671;4;32393;17959
461;7.245517730712891;670;4;32416;17972
462;7.264093399047852;671;4;32404;17973
463;7.28276515007019;671;4;32401;17975
464;7.30144190788269;670;3;32413;17975
465;7.320124626159668;670;3;32403;17967
466;7.338726282119751;670;3;32417;17961
467;7.357426166534424;670;4;32399;17962
468;7.376000642776489;670;4;32417;17960
469;7.3947083950042725;670;4;32420;17969
470;7.413559198379517;671;4;32408;17973
471;7.432193994522095;671;4;32416;17978
472;7.450777769088745;671;4;32420;17980
473;7.469442367553711;670;4;32405;17969
474;7.488051176071167;671;4;32415;17963
475;7.5067298412323;670;4;32419;17958
476;7.537049770355225;670;3;32413;17959
477;7.555737495422363;670;4;32394;17972
478;7.571560382843018;670;4;32403;17979
479;7.585878372192383;670;4;32419;17986
480;7.600102663040161;671;5;32429;17983
481;7.614311695098877;671;4;32408;17976
482;7.628500699996948;670;4;32408;17961
483;7.642794609069824;670;4;32415;17954
484;7.657006740570068;671;4;32410;17950
485;7.67127799987793;670;4;32411;17954
486;7.6855669021606445;670;4;32410;17965
487;7.6997599601745605;671;4;32403;17977
488;7.713993072509766;671;4;32410;17985
489;7.728246212005615;670;4;32412;17991
490;7.742512226104736;670;3;32410;17990
491;7.7567315101623535;672;4;32415;17974
492;7.770955324172974;670;4;32414;17956
493;7.7852606773376465;670;3;32417;17948
494;7.799489736557007;670;3;32405;17945
495;7.81377100944519;671;4;32414;17957
496;7.828040838241577;671;4;32408;17968
