;Time;Thrust;BEM pressure;N2O pressure;N2OWeigth
0;0.0;6.280834;0.05775185257543197;0.023191775811230757;0.04030124337161567
1;0.015717744827270508;6.294834;0.061727336335012886;0.023197779980155767;0.011095680206011593
2;0.029955625534057617;6.304834;0.05775185257543197;0.023191775811230757;0.006228086345075212
3;0.04427766799926758;6.324834;0.061727336335012886;0.023197779980155767;0.003794289414599916
4;0.05843067169189453;6.313834;0.05775185257543197;0.023191775811230757;0.03299985258020399
5;0.0726625919342041;6.315834;0.05775185257543197;0.023191775811230757;0.03543364951067929
6;0.08680939674377441;6.298834;0.061727336335012886;0.023197779980155767;0.020830867927870145
7;0.10109257698059082;6.313834;0.061727336335012886;0.023197779980155767;0.020830867927870145
8;0.11522436141967773;6.306834;0.061727336335012886;0.023197779980155767;0.02326466485834544
9;0.12941527366638184;6.334834;0.05775185257543197;0.023191775811230757;0.02813225871926761
10;0.14357519149780273;6.297834;0.061727336335012886;0.023197779980155767;0.015963274066933764
11;0.15768718719482422;6.3098339999999995;0.05775185257543197;0.023191775811230757;0.013529477136472678
12;0.17185497283935547;6.337834;0.05775185257543197;0.023191775811230757;0.03299985258020399
13;0.18604087829589844;6.311834;0.05775185257543197;0.023191775811230757;0.04030124337161567
14;0.20026493072509766;6.324834;0.061727336335012886;0.023197779980155767;0.025698461788806526
15;0.2144780158996582;6.304834;0.05775185257543197;0.023191775811230757;0.015963274066933764
16;0.2286520004272461;6.316834;0.061727336335012886;0.023197779980155767;0.03299985258020399
17;0.24287796020507812;6.314834;0.05775185257543197;0.023191775811230757;0.03543364951067929
18;0.2570629119873047;6.334834;0.05377636881585106;0.023185771642305748;0.025698461788806526
19;0.2712876796722412;6.327834;0.05775185257543197;0.023191775811230757;0.013529477136472678
20;0.28548264503479004;6.324834;0.05775185257543197;0.023191775811230757;0.020830867927870145
21;0.29967355728149414;6.323834;0.061727336335012886;0.023197779980155767;0.03786744644114037
22;0.31386852264404297;6.310834;0.06570282009459381;0.023203784149080777;0.011095680206011593
23;0.32795023918151855;6.3178339999999995;0.061727336335012886;0.023197779980155767;0.001360492484138831
24;0.34209537506103516;6.291834;0.061727336335012886;0.023197779980155767;0.020830867927870145
25;0.35626912117004395;6.322834;0.05775185257543197;0.023191775811230757;0.03299985258020399
26;0.3704862594604492;6.3258339999999995;0.06570282009459381;0.023203784149080777;0.03299985258020399
27;0.38462400436401367;6.334834;0.05775185257543197;0.023191775811230757;-0.008374695237733931
28;0.39875292778015137;6.331834;0.05775185257543197;0.023191775811230757;0.013529477136472678
29;0.41294312477111816;6.3178339999999995;0.05775185257543197;0.023191775811230757;0.04030124337161567
30;0.42711877822875977;6.323834;0.061727336335012886;0.023197779980155767;0.02813225871926761
31;0.4413008689880371;6.3338339999999995;0.06570282009459381;0.023203784149080777;0.013529477136472678
32;0.45551466941833496;6.332834;0.05775185257543197;0.023191775811230757;0.011095680206011593
33;0.46976280212402344;6.313834;0.06570282009459381;0.023203784149080777;0.03299985258020399
34;0.48406052589416504;6.331834;0.061727336335012886;0.023197779980155767;0.01839707099740906
35;0.49830055236816406;6.332834;0.061727336335012886;0.023197779980155767;0.015963274066933764
36;0.512615442276001;6.314834;0.05775185257543197;0.023191775811230757;0.015963274066933764
37;0.5267882347106934;6.314834;0.061727336335012886;0.023197779980155767;0.03299985258020399
38;0.5410192012786865;6.316834;0.05775185257543197;0.023191775811230757;0.025698461788806526
39;0.5551743507385254;6.304834;0.061727336335012886;0.023197779980155767;0.01839707099740906
40;0.5693600177764893;6.296834;0.061727336335012886;0.023197779980155767;0.008661883275536297
41;0.5835921764373779;6.313834;0.05775185257543197;0.023191775811230757;0.015963274066933764
42;0.5977377891540527;6.323834;0.05775185257543197;0.023191775811230757;0.030566055649742907
43;0.6118707656860352;6.3018339999999995;0.061727336335012886;0.023197779980155767;0.008661883275536297
44;0.6261088848114014;6.304834;0.061727336335012886;0.023197779980155767;0.015963274066933764
45;0.640413761138916;6.315834;0.05775185257543197;0.023191775811230757;0.025698461788806526
46;0.656430721282959;6.298834;0.061727336335012886;0.023197779980155767;0.025698461788806526
47;0.6751255989074707;6.308834;0.061727336335012886;0.023197779980155767;0.020830867927870145
48;0.6937224864959717;6.313834;0.05775185257543197;0.023191775811230757;0.020830867927870145
49;0.7122106552124023;6.329834;0.05775185257543197;0.023191775811230757;0.03299985258020399
50;0.7308254241943359;6.304834;0.05775185257543197;0.023191775811230757;0.01839707099740906
51;0.7572412490844727;6.304834;0.061727336335012886;0.023197779980155767;0.006228086345075212
52;0.7714900970458984;6.318834;0.061727336335012886;0.023197779980155767;0.03299985258020399
53;0.7856500148773193;6.3258339999999995;0.061727336335012886;0.023197779980155767;0.01839707099740906
54;0.799903154373169;6.324834;0.061727336335012886;0.023197779980155767;0.015963274066933764
55;0.8140718936920166;6.311834;0.05775185257543197;0.023191775811230757;0.001360492484138831
56;0.8281750679016113;6.3258339999999995;0.061727336335012886;0.023197779980155767;0.020830867927870145
57;0.8425619602203369;6.322834;0.05775185257543197;0.023191775811230757;0.03299985258020399
58;0.8567297458648682;6.310834;0.05775185257543197;0.023191775811230757;0.02326466485834544
59;0.8709547519683838;6.3338339999999995;0.05775185257543197;0.023191775811230757;0.02326466485834544
60;0.8850655555725098;6.302834;0.061727336335012886;0.023197779980155767;0.020830867927870145
61;0.8992016315460205;6.335834;0.061727336335012886;0.023197779980155767;0.03543364951067929
62;0.9134283065795898;6.316834;0.06570282009459381;0.023203784149080777;0.02326466485834544
63;0.9276244640350342;6.3098339999999995;0.05775185257543197;0.023191775811230757;0.01839707099740906
64;0.9417734146118164;6.297834;0.05775185257543197;0.023191775811230757;0.02813225871926761
65;0.9559144973754883;6.305834;0.061727336335012886;0.023197779980155767;0.02813225871926761
66;0.9701530933380127;6.3178339999999995;0.05775185257543197;0.023191775811230757;0.006228086345075212
67;0.984309196472168;6.332834;0.05775185257543197;0.023191775811230757;0.02326466485834544
68;0.9985191822052002;6.3018339999999995;0.061727336335012886;0.023197779980155767;0.025698461788806526
69;1.012803077697754;6.316834;1.8308176093485204;0.025869635151784965;-0.13736593255248408
70;1.065969705581665;6.290834;1.0277698899131753;0.02465679302893306;-0.0619182277080057
71;1.0803515911102295;6.322834;0.6858782865892167;0.024140434501382247;-0.027845070681465245
72;1.0944867134094238;6.320834;0.5348099037251418;0.02391227608223189;-0.005940898307258635
73;1.108579397201538;6.315834;0.479153131091009;0.023828217717281757;0.001360492484138831
74;1.1227953433990479;6.316834;0.435422809735619;0.023762171859106652;-0.022977476820528864
75;1.1451714038848877;6.3018339999999995;0.3996434558993907;0.023708134338781568;0.015963274066933764
76;1.1598131656646729;6.324834;0.3956679721398098;0.02370213016985656;-0.008374695237733931
77;1.1740591526031494;6.318834;0.41156990717813347;0.023726146845556597;-0.064352024638481
78;1.1882202625274658;6.332834;0.431447325976038;0.023756167690181646;-0.054616836916608236
79;1.2023491859436035;6.3338339999999995;0.38771700462064795;0.02369012183200654;-0.005940898307258635
80;1.2164740562438965;6.3098339999999995;0.4274718422164571;0.023750163521256636;-0.008374695237733931
81;1.2309510707855225;6.334834;0.4513247447739426;0.023786188534806692;-0.03027886761194054
82;1.2451140880584717;6.3338339999999995;0.4234963584568762;0.023744159352331626;-0.022977476820528864
83;1.2593448162078857;6.319834;0.4234963584568762;0.023744159352331626;-0.013242289098670312
84;1.2736098766326904;6.3178339999999995;0.4473492610143617;0.023780184365881682;-0.010808492168195016
85;1.2877707481384277;6.319834;0.479153131091009;0.023828217717281757;-0.04001405533379909
86;1.3019957542419434;6.327834;0.4990305498889136;0.023858238561906806;-0.027845070681465245
87;1.316373586654663;6.312834;0.4751776473314281;0.023822213548356747;-0.022977476820528864
88;1.330700397491455;6.3098339999999995;0.5427608712443037;0.023924284420081907;-0.02541127375100416
89;1.3448364734649658;6.3098339999999995;0.6262460301955028;0.024050371967507107;-0.04244785226427439
90;1.358938217163086;6.327834;0.6341969977146648;0.024062380305357126;-0.018109882959606693
91;1.3734221458435059;6.3338339999999995;0.6262460301955028;0.024050371967507107;0.008661883275536297
92;1.3876702785491943;6.326834;0.6819028028296357;0.024134430332457237;0.003794289414599916
93;1.4020450115203857;6.326834;0.7296086079446067;0.02420648035955735;-0.02054367989006778
94;1.416243076324463;6.319834;0.7653879617808349;0.024260517879882437;-0.018109882959606693
95;1.4305000305175781;6.3098339999999995;0.7653879617808349;0.024260517879882437;0.006228086345075212
96;1.4446499347686768;6.328834;0.8289957019341296;0.024356584582682587;-0.001073304446336465
97;1.4587187767028809;6.299834;0.809118283136225;0.02432656373805754;-0.04001405533379909
98;1.4768457412719727;6.336834;0.7852653805787395;0.024290538724507482;-0.027845070681465245
99;1.495544672012329;6.322834;0.7415350592233495;0.02422449286633238;-0.02054367989006778
100;1.5141065120697021;6.313834;0.8051427993766441;0.02432055956913253;-0.03758025840333801
101;1.5327744483947754;6.303834;0.7097311891467021;0.024176459514932306;-0.02541127375100416
102;1.5513885021209717;6.304834;0.7375595754637685;0.02421848869740737;0.001360492484138831
103;1.5700132846832275;6.321834;0.7494860267425113;0.0242365012041824;-0.005940898307258635
104;1.5886192321777344;6.303834;0.7375595754637685;0.02421848869740737;-0.015676086029131397
105;1.6070022583007812;6.3098339999999995;0.761412478021254;0.024254513710957427;-0.005940898307258635
106;1.625662088394165;6.296834;3.6078588498811897;0.02855349866126418;0.025698461788806526
107;1.6492021083831787;6.271834;0.5030060336484945;0.023864242730831813;0.020830867927870145
108;1.6668310165405273;6.319834;0.5387853874847227;0.023918280251156897;0.047602634163013136
109;1.6811387538909912;6.326834;0.5069815174080754;0.023870246899756822;0.03543364951067929
110;1.69529390335083;6.330834;0.4751776473314281;0.023822213548356747;0.025698461788806526
111;1.709474802017212;6.330834;0.4592757122931045;0.02379819687265671;0.03786744644114037
112;1.7237586975097656;6.314834;0.5189079686868182;0.023888259406531852;0.047602634163013136
113;1.737931728363037;6.298834;0.4950550661293327;0.023852234392981796;0.042735040302076754
114;1.752126693725586;6.316834;0.5507118387634655;0.023936292757931927;0.013529477136472678
115;1.7663304805755615;6.315834;0.4751776473314281;0.023822213548356747;0.020830867927870145
116;1.7805664539337158;6.313834;0.4632511960526854;0.02380420104158172;0.04030124337161567
117;1.794710397720337;6.322834;0.4632511960526854;0.02380420104158172;0.04516883723253784
118;1.8088502883911133;6.328834;0.4473492610143617;0.023780184365881682;0.020830867927870145
119;1.8230443000793457;6.326834;0.4513247447739426;0.023786188534806692;0.003794289414599916
120;1.8372802734375;6.334834;0.4910795823697518;0.023846230224056787;0.025698461788806526
121;1.8514442443847656;6.331834;0.4393982934951999;0.023768176028031662;0.02813225871926761
122;1.8655951023101807;6.316834;0.4712021635718472;0.023816209379431737;0.02813225871926761
123;1.879822015762329;6.299834;0.39169248838022885;0.02369612600093155;0.011095680206011593
124;1.8940708637237549;6.324834;0.4234963584568762;0.023744159352331626;0.008661883275536297
125;1.908249855041504;6.3178339999999995;0.435422809735619;0.023762171859106652;0.008661883275536297
126;1.9223897457122803;6.314834;0.4592757122931045;0.02379819687265671;0.01839707099740906
127;1.9365556240081787;6.304834;0.3996434558993907;0.023708134338781568;0.001360492484138831
128;1.9588146209716797;6.320834;0.4393982934951999;0.023768176028031662;0.008661883275536297
129;1.9730143547058105;6.332834;0.3996434558993907;0.023708134338781568;0.013529477136472678
130;1.9872894287109375;6.323834;0.4592757122931045;0.02379819687265671;0.015963274066933764
131;2.0013864040374756;6.311834;0.4513247447739426;0.023786188534806692;0.003794289414599916
132;2.01556134223938;6.323834;0.4473492610143617;0.023780184365881682;0.025698461788806526
133;2.029787302017212;6.327834;0.3757905533419052;0.023672109325231512;0.03299985258020399
134;2.043980121612549;6.318834;0.4075944234185525;0.023720142676631587;0.011095680206011593
135;2.0580861568450928;6.311834;0.39169248838022885;0.02369612600093155;0.020830867927870145
136;2.072169065475464;6.314834;0.39169248838022885;0.02369612600093155;0.015963274066933764
137;2.086501121520996;6.306834;0.2962808781502869;0.023552025946731323;0.02326466485834544
138;2.1029911041259766;6.315834;0.41952087469729527;0.023738155183406617;0.025698461788806526
139;2.1172358989715576;6.3258339999999995;0.38374152086106705;0.02368411766308153;0.025698461788806526
140;2.1314098834991455;6.291834;0.35591313454400064;0.023642088480606466;0.030566055649742907
141;2.1455795764923096;6.331834;0.38771700462064795;0.02369012183200654;0.03299985258020399
142;2.1597836017608643;6.296834;0.3996434558993907;0.023708134338781568;0.04030124337161567
143;2.1739957332611084;6.334834;0.35988861830358154;0.023648092649531476;0.025698461788806526
144;2.1881513595581055;6.311834;0.3718150695823243;0.023666105156306502;0.020830867927870145
145;2.2023134231567383;6.332834;0.2803789431119632;0.023528009271031287;0.011095680206011593
146;2.2164993286132812;6.319834;0.33603571574609603;0.023612067635981417;0.015963274066933764
147;2.230741500854492;6.304834;0.32410926446735333;0.02359405512920639;0.013529477136472678
148;2.244845151901245;6.315834;0.3996434558993907;0.023708134338781568;0.013529477136472678
149;2.259026288986206;6.329834;0.29230539439070596;0.023546021777806313;0.003794289414599916
150;2.273275136947632;6.3258339999999995;0.35591313454400064;0.023642088480606466;0.013529477136472678
151;2.287497043609619;6.296834;0.33206023198651513;0.023606063467056407;0.011095680206011593
152;2.301673173904419;6.311834;0.32808474822693423;0.023600059298131398;0.015963274066933764
153;2.3157899379730225;6.3258339999999995;0.2803789431119632;0.023528009271031287;0.001360492484138831
154;2.330061912536621;6.332834;0.33206023198651513;0.023606063467056407;-0.00350710137679755
155;2.352928638458252;6.294834;0.3121828131886106;0.023576042622431362;-0.008374695237733931
156;2.367100715637207;6.312834;0.3201337807077724;0.02358805096028138;0.006228086345075212
157;2.385432720184326;6.3338339999999995;0.3201337807077724;0.02358805096028138;0.008661883275536297
158;2.4040114879608154;6.3098339999999995;0.2724279755928014;0.023516000933181267;0.013529477136472678
159;2.4224624633789062;6.308834;0.33206023198651513;0.023606063467056407;0.015963274066933764
160;2.441033363342285;6.315834;0.20484475167992583;0.023413930061456107;0.013529477136472678
161;2.45957350730896;6.308834;0.3121828131886106;0.023576042622431362;0.015963274066933764
162;2.4780991077423096;6.322834;0.25652604055447775;0.02349198425748123;0.015963274066933764
163;2.4965851306915283;6.310834;0.29230539439070596;0.023546021777806313;0.013529477136472678
164;2.5151360034942627;6.313834;0.28832991063112506;0.023540017608881306;0.01839707099740906
165;2.533716917037964;6.2938339999999995;0.22869765423741134;0.023449955075006162;0.013529477136472678
166;2.5521819591522217;6.310834;0.2684524918332205;0.023509996764256257;0.01839707099740906
167;2.5707619190216064;6.3098339999999995;0.25652604055447775;0.02349198425748123;0.03786744644114037
168;2.5893828868865967;6.330834;0.3082073294290296;0.023570038453506352;0.02326466485834544
169;2.607879638671875;6.320834;0.20484475167992583;0.023413930061456107;0.020830867927870145
170;2.6264853477478027;6.302834;0.244599589275735;0.023473971750706202;0.02326466485834544
171;2.6451046466827393;6.327834;0.2485750730353159;0.02347997591963121;0.01839707099740906
172;2.663731336593628;6.308834;0.2525505567948968;0.02348598008855622;0.008661883275536297
173;2.682236433029175;6.308834;0.17701636536285942;0.023371900878981042;0.015963274066933764
174;2.7008321285247803;6.310834;0.2406241055161541;0.023467967581781192;0.008661883275536297
175;2.7194151878356934;6.329834;0.2485750730353159;0.02347997591963121;0.003794289414599916
176;2.7378900051116943;6.3338339999999995;0.2525505567948968;0.02348598008855622;0.015963274066933764
177;2.756474018096924;6.322834;0.22472217047783044;0.023443950906081153;0.001360492484138831
178;2.7749669551849365;6.303834;0.21677120295866859;0.023431942568231136;0.006228086345075212
179;2.7935879230499268;6.3098339999999995;0.25652604055447775;0.02349198425748123;0.006228086345075212
180;2.8121118545532227;6.314834;0.20086926792034493;0.023407925892531097;0.008661883275536297
181;2.8306236267089844;6.3098339999999995;0.244599589275735;0.023473971750706202;0.008661883275536297
182;2.8490793704986572;6.320834;0.19291830040118307;0.023395917554681078;0.013529477136472678
183;2.8676273822784424;6.329834;0.16111443032453576;0.023347884203281002;0.011095680206011593
184;2.886096239089966;6.320834;0.19689378416076403;0.023401921723606087;0.01839707099740906
185;2.9046504497528076;6.3098339999999995;0.19689378416076403;0.023401921723606087;0.015963274066933764
186;2.9232022762298584;6.329834;0.18496733288202127;0.02338390921683106;0.01839707099740906
187;2.9416611194610596;6.313834;0.20882023543950673;0.023419934230381117;0.006228086345075212
188;2.9601399898529053;6.313834;0.17304088160327852;0.023365896710056032;0.011095680206011593
189;2.9788010120391846;6.310834;0.15713894656495486;0.023341880034355993;0.025698461788806526
190;2.9973649978637695;6.332834;0.18099184912244037;0.02337790504790605;0.020830867927870145
191;3.0158567428588867;6.312834;0.12931056024788845;0.023299850851880927;0.02326466485834544
192;3.0344388484954834;6.310834;0.16508991408411672;0.023353888372206012;0.011095680206011593
193;3.05301570892334;6.310834;0.1452124952862121;0.023323867527580967;0.01839707099740906
194;3.071382522583008;6.327834;0.1412370115266312;0.023317863358655957;0.011095680206011593
195;3.0900044441223145;6.310834;0.17701636536285942;0.023371900878981042;0.02326466485834544
196;3.1085333824157715;6.296834;0.10545765769040295;0.023263825838330872;0.003794289414599916
197;3.127037286758423;6.327834;0.18894281664160217;0.023389913385756068;0.006228086345075212
198;3.1576151847839355;6.276834;0.12533507648830755;0.023293846682955918;0.006228086345075212
199;3.1745991706848145;6.303834;0.16111443032453576;0.023347884203281002;0.011095680206011593
200;3.188767194747925;6.3098339999999995;0.18099184912244037;0.02337790504790605;0.008661883275536297
201;3.202984094619751;6.304834;0.10943314144998388;0.02326983000725588;0.006228086345075212
202;3.217169761657715;6.310834;0.15316346280537396;0.023335875865430983;0.001360492484138831
203;3.2313148975372314;6.323834;0.1412370115266312;0.023317863358655957;0.01839707099740906
204;3.2455029487609863;6.302834;0.16111443032453576;0.023347884203281002;0.011095680206011593
205;3.2597756385803223;6.313834;0.0935312064116602;0.023245813331555842;-0.00350710137679755
206;3.273972749710083;6.324834;0.12533507648830755;0.023293846682955918;0.006228086345075212
207;3.2881815433502197;6.321834;0.12135959272872661;0.023287842514030908;0.006228086345075212
208;3.302339553833008;6.3338339999999995;0.12533507648830755;0.023293846682955918;0.011095680206011593
209;3.316439390182495;6.329834;0.15713894656495486;0.023341880034355993;0.008661883275536297
210;3.3306684494018555;6.323834;0.12533507648830755;0.023293846682955918;0.015963274066933764
