;Time;Thrust;BEM pressure;N2O pressure;N2OWeigth
0;0.0;4.614;0.0075514947212894324;0.011926451278742747;38.419186377149515
1;0.02384352684020996;4.647;0.006041195777031546;0.015901935038323663;38.419186377149515
2;0.03797602653503418;4.658;0.006041195777031546;0.011926451278742747;38.41784805596036
3;0.0521695613861084;4.66;0.006041195777031546;0.015901935038323663;38.419186377149515
4;0.0662531852722168;4.642;0.006041195777031546;0.011926451278742747;38.419186377149515
5;0.0803978443145752;4.656;0.006041195777031546;0.015901935038323663;38.419186377149515
6;0.09460830688476562;4.671;0.006041195777031546;0.015901935038323663;38.419186377149515
7;0.10885977745056152;4.642;0.006041195777031546;0.011926451278742747;38.420524698338674
8;0.1229853630065918;4.638;0.006041195777031546;0.011926451278742747;38.419186377149515
9;0.13717293739318848;4.682;0.006041195777031546;0.011926451278742747;38.420524698338674
10;0.1513826847076416;4.66;0.006041195777031546;0.011926451278742747;38.419186377149515
11;0.16578388214111328;4.6770000000000005;0.006041195777031546;0.015901935038323663;38.419186377149515
12;0.17989277839660645;4.663;0.006041195777031546;0.011926451278742747;38.420524698338674
13;0.19398140907287598;4.663;0.006041195777031546;0.007950967519161831;38.419186377149515
14;0.20853972434997559;4.649;0.006041195777031546;0.015901935038323663;38.419186377149515
15;0.22272109985351562;4.66;0.006041195777031546;0.011926451278742747;38.420524698338674
16;0.23684096336364746;4.658;0.0075514947212894324;0.011926451278742747;38.419186377149515
17;0.2510554790496826;4.6690000000000005;0.006041195777031546;0.011926451278742747;38.419186377149515
18;0.26526308059692383;4.66;0.0075514947212894324;0.015901935038323663;38.420524698338674
19;0.279463529586792;4.682;0.006041195777031546;0.011926451278742747;38.420524698338674
20;0.2936069965362549;4.648;0.006041195777031546;0.015901935038323663;38.419186377149515
21;0.3077578544616699;4.658;0.006041195777031546;0.015901935038323663;38.420524698338674
22;0.3220055103302002;4.65;0.006041195777031546;0.015901935038323663;38.419186377149515
23;0.33614206314086914;4.679;0.006041195777031546;0.015901935038323663;38.41784805596036
24;0.35028648376464844;4.658;0.006041195777031546;0.019877418797904577;38.419186377149515
25;0.36449599266052246;4.6770000000000005;0.0075514947212894324;0.015901935038323663;38.41784805596036
26;0.37871766090393066;4.682;0.006041195777031546;0.011926451278742747;38.419186377149515
27;0.39296507835388184;4.665;0.006041195777031546;0.015901935038323663;38.419186377149515
28;0.4153411388397217;4.639;0.006041195777031546;0.015901935038323663;38.41784805596036
29;0.42995548248291016;4.675;0.006041195777031546;0.011926451278742747;38.419186377149515
30;0.44409918785095215;4.647;0.006041195777031546;0.015901935038323663;38.41784805596036
31;0.4583308696746826;4.656;0.006041195777031546;0.011926451278742747;38.419186377149515
32;0.47255444526672363;4.642;0.0075514947212894324;0.011926451278742747;38.419186377149515
33;0.4867236614227295;4.6450000000000005;0.006041195777031546;0.015901935038323663;38.419186377149515
34;0.5010485649108887;4.658;0.006041195777031546;0.015901935038323663;38.419186377149515
35;0.5152299404144287;4.656;0.006041195777031546;0.011926451278742747;38.419186377149515
36;0.5294125080108643;4.664;0.006041195777031546;0.015901935038323663;38.419186377149515
37;0.5435800552368164;4.656;0.006041195777031546;0.015901935038323663;38.419186377149515
38;0.5577347278594971;4.6610000000000005;0.0045308968327736595;0.015901935038323663;38.419186377149515
39;0.5728528499603271;4.6530000000000005;0.0045308968327736595;0.015901935038323663;38.419186377149515
40;0.5869884490966797;4.659;0.006041195777031546;0.015901935038323663;38.419186377149515
41;0.6013531684875488;4.675;0.006041195777031546;0.011926451278742747;38.41784805596036
42;0.6155967712402344;4.675;0.006041195777031546;0.011926451278742747;38.419186377149515
43;0.6297712326049805;4.646;0.0075514947212894324;0.011926451278742747;38.419186377149515
44;0.6457791328430176;4.659;0.006041195777031546;0.015901935038323663;38.419186377149515
45;0.6643824577331543;4.636;0.006041195777031546;0.015901935038323663;38.419186377149515
46;0.6835484504699707;4.633;0.0075514947212894324;0.011926451278742747;38.419186377149515
47;0.702183723449707;4.654;0.006041195777031546;0.015901935038323663;38.420524698338674
48;0.7207057476043701;4.633;0.0075514947212894324;0.015901935038323663;38.419186377149515
49;0.7393720149993896;4.654;0.006041195777031546;0.007950967519161831;38.419186377149515
50;0.7580082416534424;4.649;0.006041195777031546;0.011926451278742747;38.419186377149515
51;0.7765984535217285;4.656;0.0075514947212894324;0.011926451278742747;38.41784805596036
52;0.7951736450195312;4.647;0.006041195777031546;0.011926451278742747;38.419186377149515
53;0.8139827251434326;4.651;0.0075514947212894324;0.015901935038323663;38.419186377149515
54;0.8326358795166016;4.662;0.006041195777031546;0.011926451278742747;38.419186377149515
55;0.8513481616973877;4.642;0.006041195777031546;0.011926451278742747;38.419186377149515
56;0.8699202537536621;4.652;0.006041195777031546;0.011926451278742747;38.419186377149515
57;0.8887803554534912;4.64;0.006041195777031546;0.011926451278742747;38.41784805596036
58;0.9073774814605713;4.642;0.006041195777031546;0.011926451278742747;38.419186377149515
59;0.9260118007659912;4.652;0.006041195777031546;0.011926451278742747;38.419186377149515
60;0.9445209503173828;4.642;0.006041195777031546;0.011926451278742747;38.420524698338674
61;0.9631462097167969;4.635;0.0075514947212894324;0.011926451278742747;38.41784805596036
62;0.9818205833435059;4.642;0.006041195777031546;0.011926451278742747;38.419186377149515
63;1.0003929138183594;4.615;0.0;0.011926451278742747;38.31345900320606
64;1.0705835819244385;4.655;0.006041195777031546;0.019877418797904577;38.357623602448264
65;1.0848312377929688;4.643;0.0075514947212894324;0.015901935038323663;38.37636009909647
66;1.0993287563323975;4.65;0.0045308968327736595;0.015901935038323663;38.38840498979889
67;1.113492488861084;4.651;0.006041195777031546;0.015901935038323663;38.392419953366364
68;1.1276860237121582;4.642;0.006041195777031546;0.011926451278742747;38.39509659574468
69;1.142035961151123;4.649;0.006041195777031546;0.015901935038323663;38.396434916933835
70;1.1562376022338867;4.6610000000000005;0.0075514947212894324;0.015901935038323663;38.396434916933835
71;1.1705560684204102;4.659;0.0075514947212894324;0.015901935038323663;38.396434916933835
72;1.1851966381072998;4.658;0.0075514947212894324;0.015901935038323663;38.396434916933835
73;1.2003271579742432;4.67;0.006041195777031546;0.011926451278742747;38.39509659574468
74;1.2231662273406982;4.64;0.0075514947212894324;0.011926451278742747;38.39375827455552
75;1.2373788356781006;4.654;0.0045308968327736595;0.015901935038323663;38.39375827455552
76;1.2516794204711914;4.656;0.0045308968327736595;0.011926451278742747;38.39375827455552
77;1.2658920288085938;4.658;0.006041195777031546;0.011926451278742747;38.391081632177205
78;1.2801127433776855;4.663;0.006041195777031546;0.015901935038323663;38.389743310988045
79;1.294403314590454;4.649;0.006041195777031546;0.015901935038323663;38.38840498979889
80;1.3086280822753906;4.664;0.006041195777031546;0.015901935038323663;38.38840498979889
81;1.3229384422302246;4.675;0.006041195777031546;0.011926451278742747;38.385728347420574
82;1.3371431827545166;4.666;0.0075514947212894324;0.011926451278742747;38.38305170504226
83;1.3514349460601807;4.658;0.006041195777031546;0.015901935038323663;38.384390026231415
84;1.3656747341156006;4.65;0.006041195777031546;0.011926451278742747;38.3817133838531
85;1.3799023628234863;4.679;0.0075514947212894324;0.015901935038323663;38.379036741474785
86;1.3953475952148438;4.656;0.006041195777031546;0.015901935038323663;38.379036741474785
87;1.4096083641052246;4.643;0.006041195777031546;0.015901935038323663;38.37769842028563
88;1.4240548610687256;4.6610000000000005;0.0045308968327736595;0.015901935038323663;38.37769842028563
89;1.4383845329284668;4.6610000000000005;0.006041195777031546;0.015901935038323663;38.37769842028563
90;1.4526102542877197;4.6610000000000005;0.0045308968327736595;0.011926451278742747;38.37769842028563
91;1.4668097496032715;4.668;0.006041195777031546;0.011926451278742747;38.37769842028563
92;1.4810945987701416;4.656;0.0075514947212894324;0.011926451278742747;38.379036741474785
93;1.4956519603729248;4.658;0.0045308968327736595;0.011926451278742747;38.380375062663944
94;1.5098826885223389;4.641;0.006041195777031546;0.015901935038323663;38.384390026231415
95;1.5240764617919922;4.649;0.006041195777031546;0.011926451278742747;38.385728347420574
96;1.5384528636932373;4.656;0.0075514947212894324;0.015901935038323663;38.38840498979889
97;1.5526018142700195;4.675;0.0075514947212894324;0.015901935038323663;38.39375827455552
98;1.5667235851287842;4.64;0.006041195777031546;0.015901935038323663;38.39375827455552
99;1.5809540748596191;4.638;0.0075514947212894324;0.015901935038323663;38.40044988050131
100;1.595167636871338;4.648;0.006041195777031546;0.015901935038323663;38.401788201690465
101;1.6177568435668945;4.666;0.0075514947212894324;0.015901935038323663;38.403126522879624
102;1.6324694156646729;4.6610000000000005;0.006041195777031546;0.02782838631706641;38.419186377149515
103;1.6547245979309082;4.646;0.006041195777031546;0.011926451278742747;38.419186377149515
104;1.669039249420166;4.649;0.0045308968327736595;0.011926451278742747;38.420524698338674
105;1.6832318305969238;4.656;0.006041195777031546;0.011926451278742747;38.420524698338674
106;1.6975595951080322;4.667;0.006041195777031546;0.011926451278742747;38.419186377149515
107;1.7118802070617676;4.6610000000000005;0.006041195777031546;0.015901935038323663;38.41784805596036
108;1.7260959148406982;4.648;0.0075514947212894324;0.011926451278742747;38.419186377149515
109;1.7403175830841064;4.663;0.0075514947212894324;0.011926451278742747;38.419186377149515
110;1.7568423748016357;4.672;0.006041195777031546;0.011926451278742747;38.419186377149515
111;1.7755589485168457;4.633;0.006041195777031546;0.011926451278742747;38.419186377149515
112;1.79416823387146;4.654;0.006041195777031546;0.011926451278742747;38.419186377149515
113;1.812760591506958;4.668;0.006041195777031546;0.011926451278742747;38.419186377149515
114;1.8314738273620605;4.666;0.006041195777031546;0.015901935038323663;38.41784805596036
115;1.8500618934631348;4.658;0.006041195777031546;0.011926451278742747;38.419186377149515
116;1.868748426437378;4.656;0.0075514947212894324;0.011926451278742747;38.419186377149515
117;1.8873448371887207;4.647;0.006041195777031546;0.015901935038323663;38.419186377149515
118;1.9061012268066406;4.654;0.006041195777031546;0.011926451278742747;38.419186377149515
119;1.924736499786377;4.658;0.006041195777031546;0.011926451278742747;38.419186377149515
120;1.943610668182373;4.665;0.006041195777031546;0.015901935038323663;38.419186377149515
121;1.9622392654418945;4.652;0.0075514947212894324;0.011926451278742747;38.419186377149515
122;1.9809725284576416;4.64;0.0045308968327736595;0.015901935038323663;38.419186377149515
123;1.9996259212493896;4.652;0.006041195777031546;0.011926451278742747;38.41784805596036
124;2.0183732509613037;4.658;0.0075514947212894324;0.015901935038323663;38.419186377149515
125;2.0369677543640137;4.633;0.006041195777031546;0.015901935038323663;38.420524698338674
126;2.055713176727295;4.65;0.006041195777031546;0.011926451278742747;38.419186377149515
127;2.0742547512054443;4.648;0.006041195777031546;0.011926451278742747;38.420524698338674
128;2.092860460281372;4.666;0.006041195777031546;0.015901935038323663;38.420524698338674
129;2.111478805541992;4.65;0.006041195777031546;0.015901935038323663;38.419186377149515
130;2.1300933361053467;4.652;0.006041195777031546;0.015901935038323663;38.420524698338674
131;2.148979663848877;4.652;0.006041195777031546;0.011926451278742747;38.41784805596036
132;2.167612075805664;4.647;0.006041195777031546;0.015901935038323663;38.41784805596036
133;2.1862056255340576;4.6450000000000005;0.006041195777031546;0.015901935038323663;38.419186377149515
134;2.204813003540039;4.656;0.006041195777031546;0.015901935038323663;38.419186377149515
135;2.2235543727874756;4.673;0.0045308968327736595;0.011926451278742747;38.419186377149515
136;2.2421998977661133;4.63;0.006041195777031546;0.011926451278742747;38.419186377149515
137;2.26073956489563;4.647;0.006041195777031546;0.015901935038323663;38.419186377149515
138;2.2824177742004395;4.651;0.006041195777031546;0.011926451278742747;38.419186377149515
139;2.3011484146118164;4.651;0.0045308968327736595;0.011926451278742747;38.419186377149515
140;2.3196818828582764;4.649;0.0045308968327736595;0.011926451278742747;38.419186377149515
141;2.3383591175079346;4.654;0.006041195777031546;0.015901935038323663;38.419186377149515
142;2.3570637702941895;4.63;0.006041195777031546;0.015901935038323663;38.419186377149515
143;2.375704288482666;4.654;0.006041195777031546;0.011926451278742747;38.419186377149515
144;2.394298791885376;4.649;0.006041195777031546;0.015901935038323663;38.419186377149515
145;2.4243648052215576;4.632;0.0045308968327736595;0.015901935038323663;38.419186377149515
146;2.4433581829071045;4.654;0.006041195777031546;0.011926451278742747;38.419186377149515
147;2.4588305950164795;4.658;0.006041195777031546;0.015901935038323663;38.419186377149515
148;2.4730281829833984;4.642;0.0045308968327736595;0.011926451278742747;38.420524698338674
149;2.487290143966675;4.654;0.006041195777031546;0.015901935038323663;38.41784805596036
150;2.501551866531372;4.68;0.0045308968327736595;0.011926451278742747;38.419186377149515
151;2.5157556533813477;4.651;0.006041195777031546;0.011926451278742747;38.419186377149515
152;2.529942512512207;4.682;0.006041195777031546;0.011926451278742747;38.419186377149515
153;2.5441081523895264;4.642;0.0075514947212894324;0.015901935038323663;38.419186377149515
154;2.5582680702209473;4.6610000000000005;0.006041195777031546;0.015901935038323663;38.420524698338674
155;2.572458028793335;4.642;0.006041195777031546;0.015901935038323663;38.420524698338674
156;2.586665630340576;4.672;0.0075514947212894324;0.011926451278742747;38.41784805596036
157;2.600947380065918;4.658;0.0075514947212894324;0.015901935038323663;38.419186377149515
158;2.615166187286377;4.6530000000000005;0.006041195777031546;0.019877418797904577;38.420524698338674
159;2.629379987716675;4.641;0.0075514947212894324;0.015901935038323663;38.419186377149515
160;2.643582582473755;4.656;0.006041195777031546;0.015901935038323663;38.419186377149515
161;2.657902479171753;4.64;0.0045308968327736595;0.015901935038323663;38.419186377149515
162;2.6721701622009277;4.664;0.006041195777031546;0.015901935038323663;38.419186377149515
163;2.6863839626312256;4.6530000000000005;0.006041195777031546;0.015901935038323663;38.419186377149515
164;2.700612783432007;4.642;0.009061793665547319;0.011926451278742747;38.419186377149515
165;2.7148075103759766;4.6770000000000005;0.006041195777031546;0.011926451278742747;38.419186377149515
166;2.7290992736816406;4.66;0.006041195777031546;0.015901935038323663;38.419186377149515
167;2.7432820796966553;4.658;0.006041195777031546;0.007950967519161831;38.419186377149515
168;2.757535934448242;4.658;0.006041195777031546;0.011926451278742747;38.419186377149515
169;2.77178955078125;4.649;0.006041195777031546;0.015901935038323663;38.419186377149515
170;2.786003351211548;4.642;0.006041195777031546;0.015901935038323663;38.419186377149515
171;2.8002352714538574;4.656;0.0075514947212894324;0.011926451278742747;38.419186377149515
172;2.822375535964966;4.663;0.006041195777031546;0.015901935038323663;38.419186377149515
173;2.8370063304901123;4.654;0.0045308968327736595;0.011926451278742747;38.419186377149515
174;2.851210832595825;4.6610000000000005;0.0045308968327736595;0.011926451278742747;38.41784805596036
175;2.865487813949585;4.68;0.006041195777031546;0.011926451278742747;38.419186377149515
176;2.87966251373291;4.668;0.006041195777031546;0.011926451278742747;38.420524698338674
177;2.8939883708953857;4.6610000000000005;0.006041195777031546;0.015901935038323663;38.419186377149515
178;2.908302068710327;4.68;0.006041195777031546;0.011926451278742747;38.420524698338674
179;2.922487735748291;4.656;0.0075514947212894324;0.015901935038323663;38.419186377149515
180;2.9367127418518066;4.665;0.006041195777031546;0.011926451278742747;38.419186377149515
181;2.951009511947632;4.656;0.006041195777031546;0.015901935038323663;38.419186377149515
182;2.965184211730957;4.656;0.0045308968327736595;0.015901935038323663;38.419186377149515
183;2.9794161319732666;4.659;0.0075514947212894324;0.015901935038323663;38.419186377149515
184;2.9936211109161377;4.656;0.006041195777031546;0.011926451278742747;38.419186377149515
185;3.0078771114349365;4.648;0.006041195777031546;-0.023852902557485494;38.293384185368694
186;3.042405843734741;4.649;0.006041195777031546;0.011926451278742747;38.34290206936753
187;3.0565078258514404;4.664;0.006041195777031546;0.011926451278742747;38.36565352958321
188;3.07060170173645;4.658;0.0075514947212894324;0.019877418797904577;38.375021777907314
189;3.0847346782684326;4.659;0.0075514947212894324;0.011926451278742747;38.3817133838531
190;3.0989675521850586;4.644;0.006041195777031546;0.011926451278742747;38.38305170504226
191;3.1130895614624023;4.681;0.006041195777031546;0.011926451278742747;38.385728347420574
192;3.1272614002227783;4.663;0.0075514947212894324;0.015901935038323663;38.385728347420574
193;3.1415083408355713;4.673;0.006041195777031546;0.011926451278742747;38.385728347420574
194;3.1557021141052246;4.6610000000000005;0.0045308968327736595;0.011926451278742747;38.387066668609734
195;3.173997640609741;4.648;0.006041195777031546;0.015901935038323663;38.38840498979889
196;3.1925764083862305;4.66;0.006041195777031546;0.015901935038323663;38.38840498979889
197;3.2112390995025635;4.658;0.006041195777031546;0.015901935038323663;38.38840498979889
198;3.229766607284546;4.652;0.0045308968327736595;0.011926451278742747;38.38840498979889
199;3.2483532428741455;4.654;0.0045308968327736595;0.015901935038323663;38.389743310988045
200;3.266965866088867;4.655;0.006041195777031546;0.015901935038323663;38.391081632177205
201;3.2856404781341553;4.648;0.0075514947212894324;0.011926451278742747;38.392419953366364
202;3.30413818359375;4.656;0.006041195777031546;0.011926451278742747;38.392419953366364
203;3.3227217197418213;4.636;0.006041195777031546;0.011926451278742747;38.39375827455552
204;3.341313362121582;4.673;0.006041195777031546;0.011926451278742747;38.39509659574468
205;3.359922170639038;4.668;0.0075514947212894324;0.015901935038323663;38.39375827455552
206;3.37855863571167;4.656;0.0045308968327736595;0.011926451278742747;38.39509659574468
207;3.397134304046631;4.652;0.006041195777031546;0.011926451278742747;38.397773238122994
208;3.4157557487487793;4.636;0.0075514947212894324;0.015901935038323663;38.397773238122994
209;3.4342756271362305;4.667;0.0075514947212894324;0.015901935038323663;38.39911155931215
210;3.4528748989105225;4.6610000000000005;0.0075514947212894324;0.015901935038323663;38.40044988050131
211;3.4715354442596436;4.666;0.006041195777031546;0.015901935038323663;38.401788201690465
212;3.490098476409912;4.65;0.0075514947212894324;0.015901935038323663;38.401788201690465
213;3.5087099075317383;4.65;0.006041195777031546;0.015901935038323663;38.403126522879624
214;3.5271904468536377;4.654;0.006041195777031546;0.011926451278742747;38.404464844068784
215;3.5457911491394043;4.655;0.006041195777031546;0.011926451278742747;38.40580316525794
216;3.5642948150634766;4.666;0.0045308968327736595;0.015901935038323663;38.40580316525794
217;3.582960367202759;4.6690000000000005;0.006041195777031546;0.011926451278742747;38.40580316525794
218;3.601762056350708;4.649;0.006041195777031546;0.015901935038323663;38.419186377149515
219;3.644829273223877;4.6290000000000004;0.006041195777031546;0.011926451278742747;38.41784805596036
