;Time;Thrust;BEM pressure;N2O pressure;N2OWeigth
0;0.0;0.04807899999999954;0.038554241500415726;-0.04685014647947095;5.49737045605265
1;0.015361547470092773;0.1120789999999996;0.038554241500415726;-0.04685014647947095;5.494936659122175
2;0.029670238494873047;0.1120789999999996;0.038554241500415726;-0.04685014647947095;5.492502862191714
3;0.043779611587524414;0.09307899999999947;0.03457875774083481;-0.04685615064839596;5.502238049913586
4;0.0579524040222168;0.11307899999999993;0.038554241500415726;-0.04685014647947095;5.502238049913586
5;0.07222986221313477;0.09307899999999947;0.038554241500415726;-0.04685014647947095;5.490069065261238
6;0.08638548851013184;0.09207900000000002;0.038554241500415726;-0.04685014647947095;5.492502862191714
7;0.10063481330871582;0.09307899999999947;0.03457875774083481;-0.04685615064839596;5.504671846844047
8;0.11487746238708496;0.11107900000000015;0.038554241500415726;-0.04685014647947095;5.502238049913586
9;0.12931370735168457;0.08707900000000013;0.03457875774083481;-0.04685615064839596;5.49737045605265
10;0.14348864555358887;0.0810789999999999;0.03457875774083481;-0.04685615064839596;5.494936659122175
11;0.15766191482543945;0.09307899999999947;0.038554241500415726;-0.04685014647947095;5.502238049913586
12;0.17200541496276855;0.11307899999999993;0.03457875774083481;-0.04685615064839596;5.49737045605265
13;0.1862499713897705;0.1120789999999996;0.03457875774083481;-0.04685615064839596;5.494936659122175
14;0.20044350624084473;0.1200789999999996;0.03457875774083481;-0.04685615064839596;5.502238049913586
15;0.2226543426513672;0.08807899999999957;0.03457875774083481;-0.04685615064839596;5.49737045605265
16;0.2368459701538086;0.11907900000000016;0.038554241500415726;-0.04685014647947095;5.499804252983111
17;0.25103330612182617;0.0990789999999997;0.038554241500415726;-0.04685014647947095;5.494936659122175
18;0.26528096199035645;0.1120789999999996;0.038554241500415726;-0.04685014647947095;5.49737045605265
19;0.2796013355255127;0.0990789999999997;0.038554241500415726;-0.04685014647947095;5.502238049913586
20;0.29377317428588867;0.11907900000000016;0.038554241500415726;-0.04685014647947095;5.49737045605265
21;0.30794858932495117;0.10607899999999937;0.030603273981253898;-0.04686215481732097;5.499804252983111
22;0.32225799560546875;0.1120789999999996;0.038554241500415726;-0.04685014647947095;5.49737045605265
23;0.33641958236694336;0.10607899999999937;0.038554241500415726;-0.04685014647947095;5.499804252983111
24;0.3506031036376953;0.10007900000000003;0.038554241500415726;-0.04685014647947095;5.502238049913586
25;0.36486077308654785;0.1120789999999996;0.038554241500415726;-0.04685014647947095;5.499804252983111
26;0.3791370391845703;0.0940789999999998;0.038554241500415726;-0.04685014647947095;5.499804252983111
27;0.3933107852935791;0.11107900000000015;0.03457875774083481;-0.04685615064839596;5.49737045605265
28;0.40740132331848145;0.10007900000000003;0.038554241500415726;-0.04685014647947095;5.499804252983111
29;0.4216187000274658;0.1120789999999996;0.042529725259996654;-0.04684414231054594;5.499804252983111
30;0.43573641777038574;0.11907900000000016;0.042529725259996654;-0.04684414231054594;5.49737045605265
31;0.449887752532959;0.10607899999999937;0.038554241500415726;-0.04685014647947095;5.49737045605265
32;0.46414613723754883;0.0860789999999998;0.03457875774083481;-0.04685615064839596;5.49737045605265
33;0.47834300994873047;0.09307899999999947;0.038554241500415726;-0.04685014647947095;5.49737045605265
34;0.4926884174346924;0.09307899999999947;0.038554241500415726;-0.04685014647947095;5.494936659122175
35;0.5069267749786377;0.09307899999999947;0.03457875774083481;-0.04685615064839596;5.494936659122175
36;0.5211212635040283;0.1120789999999996;0.038554241500415726;-0.04685014647947095;5.49737045605265
37;0.5352871417999268;0.10607899999999937;0.03457875774083481;-0.04685615064839596;5.504671846844047
38;0.5495805740356445;0.10007900000000003;0.03457875774083481;-0.04685615064839596;5.494936659122175
39;0.563723087310791;0.10607899999999937;0.038554241500415726;-0.04685014647947095;5.492502862191714
40;0.5779135227203369;0.09307899999999947;0.03457875774083481;-0.04685615064839596;5.499804252983111
41;0.5921962261199951;0.0990789999999997;0.038554241500415726;-0.04685014647947095;5.504671846844047
42;0.6063966751098633;0.09307899999999947;0.038554241500415726;-0.04685014647947095;5.49737045605265
43;0.6205999851226807;0.10607899999999937;0.038554241500415726;-0.04685014647947095;5.490069065261238
44;0.6348867416381836;0.11907900000000016;0.038554241500415726;-0.04685014647947095;5.49737045605265
45;0.6491961479187012;0.11307899999999993;0.038554241500415726;-0.04685014647947095;5.5071056437745085
46;0.6652629375457764;0.0940789999999998;0.03457875774083481;-0.04685615064839596;5.49737045605265
47;0.6839094161987305;0.10607899999999937;0.038554241500415726;-0.04685014647947095;5.490069065261238
48;0.7036101818084717;0.0810789999999999;0.038554241500415726;-0.04685014647947095;5.502238049913586
49;0.7223048210144043;0.0860789999999998;0.03457875774083481;-0.04685615064839596;5.49737045605265
50;0.74100661277771;0.0940789999999998;0.038554241500415726;-0.04685014647947095;5.490069065261238
51;0.7597191333770752;0.10007900000000003;0.042529725259996654;-0.04684414231054594;5.499804252983111
52;0.778364896774292;0.1070789999999997;0.038554241500415726;-0.04685014647947095;5.504671846844047
53;0.7969274520874023;0.10607899999999937;0.042529725259996654;-0.04684414231054594;5.492502862191714
54;0.8156063556671143;0.09307899999999947;0.03457875774083481;-0.04685615064839596;5.502238049913586
55;0.8342599868774414;0.08707900000000013;0.03457875774083481;-0.04685615064839596;5.502238049913586
56;0.8529646396636963;0.10007900000000003;0.03457875774083481;-0.04685615064839596;5.492502862191714
57;0.8718104362487793;0.0860789999999998;0.03457875774083481;-0.04685615064839596;5.494936659122175
58;0.89034104347229;0.0810789999999999;0.03457875774083481;-0.04685615064839596;5.502238049913586
59;0.9089179039001465;0.09307899999999947;0.03457875774083481;-0.04685615064839596;5.492502862191714
60;0.9275214672088623;0.0940789999999998;0.038554241500415726;-0.04685014647947095;5.494936659122175
61;0.9461221694946289;0.11307899999999993;0.038554241500415726;-0.04685014647947095;5.5071056437745085
62;0.9647269248962402;0.09307899999999947;0.03457875774083481;-0.04685615064839596;5.49737045605265
63;0.9834046363830566;0.0940789999999998;0.03457875774083481;-0.04685615064839596;5.492502862191714
64;1.0020473003387451;0.06107899999999944;1.8792032221863797;-0.04407021626719159;5.344041249433218
65;1.0840022563934326;0.09507900000000014;0.9409890549252835;-0.04548720013349381;5.426790345069094
66;1.0984816551208496;0.09307899999999947;0.7461903507058187;-0.04578140441081927;5.395150984973029
67;1.1127173900604248;0.0990789999999997;0.6229503541588103;-0.04596753364749457;5.424356548138633
68;1.1268980503082275;0.1070789999999997;0.5235632601692874;-0.0461176378706198;5.494936659122175
69;1.141108512878418;0.0810789999999999;0.5036858413713828;-0.04614765871524485;5.482767674469841
70;1.1553590297698975;0.11307899999999993;0.4718819712947355;-0.04619569206664493;5.424356548138633
71;1.1700694561004639;0.1120789999999996;0.4639310037755737;-0.04620770040449494;5.373246812598822
72;1.1843321323394775;0.10007900000000003;0.5076613251309637;-0.04614165454631984;5.275894935380137
73;1.19850754737854;0.09307899999999947;0.5156122926501255;-0.04612964620846982;5.064154602429497
74;1.2127559185028076;0.09307899999999947;0.6666806755142004;-0.04590148778931946;4.794003143147648
75;1.2269644737243652;0.0940789999999998;0.9648419574827691;-0.04545117511994376;4.626071154945421
76;1.2411530017852783;0.08207899999999935;1.3981696872770888;-0.04479672070711773;4.402161837342447
77;1.255314826965332;0.11907900000000016;2.1376096665591393;-0.04367994528706597;4.185553910530885
78;1.269623041152954;0.0940789999999998;3.0320935124648454;-0.04232900727893885;4.0687316578684545
79;1.2838046550750732;0.10607899999999937;3.92260187461097;-0.04098407343973674;4.146613159643408
80;1.297983169555664;0.0990789999999997;5.353776028060101;-0.038822572626733345;4.275604396958158
81;1.3122637271881104;0.10007900000000003;7.079135979718218;-0.03621676331327925;4.426499806647129
82;1.3265342712402344;0.11907900000000016;9.12253463214281;-0.03313062048582441;4.355919695663573
83;1.3407609462738037;0.10007900000000003;11.55950617676591;-0.029450064934793626;4.492212323769735
84;1.3550002574920654;0.10007900000000003;13.99250223762943;-0.02577551355268785;4.6552767181110255
85;1.369264841079712;0.10007900000000003;17.145060858977093;-0.02101420759515538;4.93029577125381
86;1.3834443092346191;0.10007900000000003;20.16642851625859;-0.01645103921214821;5.163940276578657
87;1.3976237773895264;0.0940789999999998;22.917463277888583;-0.012296154316041683;5.25399076300593
88;1.4206717014312744;0.10007900000000003;26.55503091790512;-0.006802339749658055;5.453562111304237
89;1.435035228729248;0.1200789999999996;28.54277279769558;-0.003800255287153338;6.081481719364746
90;1.4492466449737549;0.11907900000000016;30.48678435613065;-0.0008642166828237291;6.71183512435573
91;1.4634113311767578;0.08907899999999991;32.518256557276494;0.002203913637856089;6.685063358120587
92;1.4776208400726318;0.1070789999999997;34.09652360983012;0.004587568701084836;6.001166420659331
93;1.4918773174285889;0.0940789999999998;35.690692597422064;0.006995240440013616;5.117698134899783
94;1.5062217712402344;0.10607899999999937;36.84755837146011;0.008742453597191356;4.716121641372709
95;1.5204455852508545;0.11907900000000016;37.84142931135534;0.010243495828443715;5.027647648472495
96;1.5346260070800781;0.08207899999999935;38.93071186148051;0.011888638113896295;5.43165793893003
97;1.5490105152130127;0.0990789999999997;39.96831312273113;0.013455726203323762;5.185844448952864
98;1.5631890296936035;0.0990789999999997;40.79918922848354;0.014710597508650732;4.662578108902437
99;1.5774025917053223;0.08707900000000013;41.51875178896769;0.015797352084077447;4.2488326307230295
100;1.5916740894317627;0.1120789999999996;42.123025320423984;0.01670998576067887;4.553057247031418
101;1.605907678604126;0.11307899999999993;42.48876982630543;0.017262369301779733;5.334306061711345
102;1.620105266571045;0.11907900000000016;43.260013675664126;0.01842717807323157;6.086349313225682
103;1.6343557834625244;0.1070789999999997;44.26978655059768;0.019952236980183967;6.122856267182684
104;1.6487090587615967;0.1120789999999996;45.33124071440579;0.021555350083161486;5.31970328012855
105;1.6717991828918457;0.11307899999999993;46.50003293972257;0.02332057574711425;4.915692989671015
106;1.6861166954040527;0.10507899999999992;47.02479679598726;0.024113126045215504;4.898656411157745
107;1.7002851963043213;0.10607899999999937;47.6409967787223;0.025043772228591964;5.000875882237352
108;1.7144815921783447;0.10007900000000003;48.28104966401482;0.026010443425518483;4.957067537488953
109;1.7288501262664795;0.0990789999999997;48.09022644355494;0.025722243317118025;4.555491043961879
110;1.7430288791656494;0.11807899999999982;48.285025147774405;0.026016447594443486;4.163649738156678
111;1.7572121620178223;0.0810789999999999;48.79786255276034;0.026790985385769704;4.47760954218694
112;1.7725999355316162;0.09207900000000002;49.12782770480556;0.027289331406545485;5.3927171880425675
113;1.791198492050171;0.11307899999999993;49.56910640211904;0.027955794157221527;5.667736241185338
114;1.809875249862671;0.07507899999999967;49.67246897986815;0.028111902549271782;5.059287008568575
115;1.8286077976226807;0.08707900000000013;49.86329220032803;0.02840010265767224;4.922994380462413
116;1.847414493560791;0.09307899999999947;50.59080572833134;0.02949886557094896;5.246689372214533
117;1.8660943508148193;0.1120789999999996;50.94859926669362;0.030039240774199803;4.959501334419414
118;1.8846709728240967;0.10007900000000003;51.06786377948105;0.030219365841950098;4.57252762247515
119;1.9034075736999512;0.09207900000000002;51.46143667167956;0.030813778565526022;4.730724422955504
120;1.9221043586730957;0.08707900000000013;51.54094634687117;0.030933861944026204;5.000875882237352
121;1.9407320022583008;0.08207899999999935;51.69996569725441;0.031174028701026597;4.949766146697556
122;1.9593708515167236;0.08707900000000013;52.31616567998945;0.032104674884403044;5.10796294717791
123;1.9779415130615234;0.0860789999999998;52.391699871421494;0.03221875409397824;5.154205088856784
124;1.9966273307800293;0.10607899999999937;52.18497471592328;0.03190653730987774;4.89622261422727
125;2.015328884124756;0.10507899999999992;52.447356644055624;0.03230281245892836;4.815907315521855
126;2.034085512161255;0.0990789999999997;52.53879277052599;0.03244090834420358;4.884053629574936
127;2.0528013706207275;0.07507899999999967;52.17304826464454;0.03188852480310272;4.703952656720375
128;2.071357011795044;0.0940789999999998;53.05958114303109;0.03322745447337982;4.703952656720375
129;2.090017557144165;0.09207900000000002;53.7234869308811;0.034230150683856396;4.762363783051583
130;2.108717441558838;0.0940789999999998;53.524712742902054;0.03392994223760592;4.577395216336086
131;2.127357006072998;0.0940789999999998;52.98802243535863;0.03311937943272964;4.601733185640754
132;2.1461217403411865;0.08807899999999957;53.13113985070354;0.03333552951402998;4.73559201681644
133;2.1647651195526123;0.0990789999999997;53.37364436003798;0.03370178381845556;4.854848066409332
134;2.1836659908294678;0.0940789999999998;53.24642887973139;0.03350965041285526;4.68448228127663
135;2.2023026943206787;0.09307899999999947;53.38557081131672;0.03371979632523058;4.733158219885979
136;2.231437921524048;0.07507899999999967;53.32991403868259;0.03363573796028046;4.845112878687459
137;2.2500765323638916;0.0990789999999997;53.139090818222705;0.03334753785188;4.492212323769735
138;2.271411180496216;0.08707900000000013;53.10331146438648;0.03329350033155492;4.343750711011239
139;2.285677909851074;0.0990789999999997;52.88465985760953;0.0329632710406794;4.548189653170482
140;2.2999303340911865;0.0990789999999997;53.01982630543528;0.033167412784129734;4.728290626025043
141;2.314105987548828;0.11107900000000015;52.880684373849945;0.0329572668717544;4.645541530389167
142;2.328366279602051;0.09307899999999947;52.86080695505204;0.03292724602712934;4.4873447299087985
143;2.34260892868042;0.08707900000000013;52.868757922571206;0.032939254364979374;4.492212323769735
144;2.356781244277954;0.10607899999999937;52.99994888663737;0.033137391939504664;4.60660077950169
145;2.3709897994995117;0.09207900000000002;52.96019404904156;0.03307735025025458;4.71855543830317
146;2.3852455615997314;0.11807899999999982;53.0158508216757;0.03316140861520472;4.665011905832898
147;2.3995001316070557;0.11907900000000016;52.753468893543356;0.032765133466154096;4.351052101802651
148;2.4136886596679688;0.0990789999999997;52.77334631234126;0.03279515431077914;4.20015669211368
149;2.427870988845825;0.09807899999999936;52.57457212436221;0.03249494586452866;4.2926409754714285
150;2.4420998096466064;0.0990789999999997;52.58252309188138;0.03250695420237868;4.426499806647129
151;2.4563100337982178;0.08707900000000013;52.2247295535191;0.03196657899912784;4.472741948326004
152;2.4705135822296143;0.0860789999999998;52.435430192776884;0.03228479995215334;4.2634354123058245
153;2.484678268432617;0.11807899999999982;52.60240051067928;0.03253697504700374;4.178252519739473
154;2.498976707458496;0.09207900000000002;52.578547608121795;0.03250095003345368;4.39486044655105
155;2.5131802558898926;0.11107900000000015;52.69781212090923;0.03268107510120396;4.6552767181110255
156;2.527437925338745;0.11107900000000015;52.709738572187966;0.03269908760797898;4.594431794849356
157;2.54172420501709;0.1120789999999996;53.00392437039695;0.03314339610842968;4.426499806647129
158;2.5559818744659424;0.11107900000000015;52.76141986106252;0.032777141804004116;4.246398833792554
159;2.570188283920288;0.11907900000000016;52.6183024457176;0.03256099172270376;4.2902071785409674
160;2.5844199657440186;0.1120789999999996;52.892610825128685;0.03297527937852942;4.365654883385446
161;2.5986993312835693;0.11107900000000015;52.737566958505035;0.03274111679045406;4.229362255279284
162;2.6215431690216064;0.0940789999999998;52.48313599789186;0.032356849979253456;4.236663646070696
163;2.635756731033325;0.0940789999999998;52.53084180300682;0.03242890000635356;4.302376163193301
164;2.649998426437378;0.09207900000000002;52.21280310224035;0.0319485664923528;4.3461845079417145
165;2.664193868637085;0.11807899999999982;52.18099923216371;0.03190053314095274;4.334015523289381
166;2.678499460220337;0.09307899999999947;52.0140289142613;0.03164835804610234;4.348618304872176
167;2.692739963531494;0.11807899999999982;52.47518503037269;0.032344841641403436;4.397294243481525
168;2.706897497177124;0.0990789999999997;52.61432696195802;0.03255498755377876;4.426499806647129
169;2.7210869789123535;0.09107899999999969;52.35592051758526;0.03216471657365314;4.3899928526901135
170;2.735302448272705;0.1120789999999996;52.48711148165143;0.03236285414817846;4.246398833792554
171;2.74957013130188;0.11107900000000015;52.4115772902194;0.03224877493860328;4.205024285974616
172;2.7637364864349365;0.0810789999999999;52.21280310224035;0.0319485664923528;4.117407596477804
173;2.7779269218444824;0.10607899999999937;51.90271536899304;0.03148024131620208;4.073599251729391
174;2.792189359664917;0.08007899999999957;51.990176011703824;0.03161233303255228;4.1247089872692015
175;2.806378126144409;0.11107900000000015;52.12534245952957;0.0318164747760026;4.295074772401904
176;2.8205747604370117;0.11807899999999982;52.38772438766191;0.03221274992505322;4.278038193888634
177;2.8347952365875244;0.09207900000000002;52.33206761502778;0.0321286915601031;4.231796052209759
178;2.849050760269165;0.1120789999999996;52.01005343050173;0.031642353877177336;4.209891879835553
179;2.8632380962371826;0.10507899999999992;51.9106663365122;0.03149224965405208;4.256134021514427
180;2.8774046897888184;0.08707900000000013;51.457461187919975;0.03080777439660102;4.236663646070696
181;2.891705274581909;0.11807899999999982;51.76754892116729;0.03127609957275176;4.270736803097236
182;2.9059407711029053;0.09307899999999947;51.95042117410801;0.03155229134330218;4.175818722809012
183;2.9201481342315674;0.10607899999999937;52.1611218133658;0.031870512296327695;4.0809006425208025
184;2.9343760013580322;0.11807899999999982;51.86693601515681;0.03142620379587698;4.017621922328658
185;2.9485504627227783;0.11107900000000015;51.930543755310104;0.03152227049867714;4.187987707461346
186;2.9629178047180176;0.0990789999999997;51.85500956387807;0.03140819128910196;4.285339584680031
187;2.977083444595337;0.11007899999999982;51.94247020658885;0.031540283005452176;4.063864064007532
188;2.9954442977905273;0.11307899999999993;51.77947537244603;0.03129411207952678;3.964078389858372
189;3.014129877090454;0.09307899999999947;51.71189214853316;0.03119204120780162;4.329147929428444
190;3.032792568206787;0.09307899999999947;51.56877473318824;0.03097589112650128;4.270736803097236
191;3.051441192626953;0.10007900000000003;51.09171668203853;0.030255390855500143;3.9957177499544514
192;3.0700318813323975;0.08707900000000013;51.4534857041604;0.030801770227676016;4.100371017964534
193;3.0888288021087646;0.08707900000000013;51.584676668226564;0.03099990780220132;4.3194127417065715
194;3.1074461936950684;0.0940789999999998;51.37795151272836;0.030687691018100823;3.9543432021365135
195;3.126162052154541;0.0810789999999999;51.60852957078405;0.031035932815751364;3.920270045109973
196;3.144747495651245;0.10607899999999937;51.95439665786759;0.0315582955122272;4.112540002616868
197;3.1634252071380615;0.08707900000000013;51.77947537244603;0.03129411207952678;4.093069627173136
198;3.1820669174194336;0.11307899999999993;51.791401823724776;0.031312124586301816;3.949475608275577
199;3.200608730316162;0.10607899999999937;51.672137310937345;0.03113199951855152;3.949475608275577
