;Time;Thrust;BEM pressure;N2O pressure;N2OWeigth
0;0.0;2158;32;2;2415
1;0.015705108642578125;2456;31;3;2474
2;0.030257225036621094;2468;30;2;2473
3;0.04458141326904297;2465;31;3;2472
4;0.05913233757019043;2467;30;3;2473
5;0.07343554496765137;2466;30;4;2472
6;0.08780765533447266;2467;31;3;2471
7;0.10215473175048828;2466;30;3;2474
8;0.11649799346923828;2469;29;3;2472
9;0.13088202476501465;2467;30;3;2470
10;0.14533329010009766;2468;31;2;2472
11;0.1596355438232422;2467;30;3;2472
12;0.17395830154418945;2471;32;3;2472
13;0.18827271461486816;2469;30;2;2472
14;0.20264673233032227;2466;31;3;2475
15;0.21687674522399902;2467;30;3;2474
16;0.23124980926513672;2470;30;3;2471
17;0.24561619758605957;2466;31;3;2474
18;0.25989723205566406;2469;30;3;2473
19;0.2744174003601074;2467;30;3;2472
20;0.2888624668121338;2467;30;2;2473
21;0.3031766414642334;2467;31;3;2455
22;0.3230438232421875;2449;30;3;2474
23;0.3374209403991699;2472;31;3;2473
24;0.3518562316894531;2467;30;3;2473
25;0.36615419387817383;2470;30;2;2471
26;0.3805394172668457;2465;31;3;2473
27;0.3949854373931885;2468;30;3;2474
28;0.4092717170715332;2471;31;3;2472
29;0.42364501953125;2472;29;3;2473
30;0.4379441738128662;2469;30;2;2473
31;0.45240330696105957;2467;31;2;2474
32;0.4667041301727295;2471;30;3;2473
33;0.48107433319091797;2470;31;2;2474
34;0.49544453620910645;2468;29;2;2474
35;0.5097446441650391;2470;31;3;2473
36;0.5241217613220215;2469;30;3;2474
37;0.5384068489074707;2471;31;2;2473
38;0.5528581142425537;2468;30;4;2474
39;0.567202091217041;2469;30;3;2473
40;0.5817151069641113;2468;31;3;2473
41;0.5960142612457275;2470;30;3;2474
42;0.6102755069732666;2472;30;2;2472
43;0.6246318817138672;2469;31;3;2471
44;0.6389718055725098;2465;31;3;2472
45;0.653311014175415;2468;31;2;2470
46;0.6693689823150635;2459;30;3;2458
47;0.6880702972412109;2452;31;2;2461
48;0.7068953514099121;2450;29;3;2459
49;0.7256975173950195;2448;31;3;2457
50;0.7445197105407715;2450;29;3;2459
51;0.7632849216461182;2450;31;3;2461
52;0.7821321487426758;2449;30;3;2459
53;0.8009753227233887;2449;30;3;2458
54;0.8198244571685791;2451;30;4;2460
55;0.8385176658630371;2451;31;4;2458
56;0.8573477268218994;2454;30;3;2460
57;0.8762638568878174;2449;30;3;2458
58;0.8951210975646973;2454;30;3;2459
59;0.913832426071167;2451;30;2;2460
60;0.932633638381958;2448;31;3;2459
61;0.9514777660369873;2452;31;3;2457
62;0.9703569412231445;2448;30;2;2458
63;0.9892652034759521;2452;30;3;2458
64;1.0079703330993652;2311;30;3;2430
65;1.079314947128296;2430;31;2;2471
66;1.0938689708709717;2464;30;3;2470
67;1.108161211013794;2469;31;3;2472
68;1.1225433349609375;2468;30;3;2471
69;1.1368224620819092;2465;30;2;2473
70;1.1513495445251465;2467;31;3;2476
71;1.165872573852539;2468;30;3;2473
72;1.1801726818084717;2469;29;2;2473
73;1.1946799755096436;2466;30;3;2474
74;1.2090520858764648;2469;30;3;2474
75;1.2233760356903076;2468;31;2;2471
76;1.2377793788909912;2465;32;2;2475
77;1.2522733211517334;2467;30;3;2473
78;1.2665855884552002;2470;31;3;2473
79;1.2809257507324219;2468;29;3;2474
80;1.2953119277954102;2468;30;4;2473
81;1.3096880912780762;2468;30;3;2471
82;1.3241922855377197;2467;30;3;2474
83;1.3384742736816406;2470;30;3;2473
84;1.3528163433074951;2468;31;3;2474
85;1.3671386241912842;2469;31;3;2474
86;1.3814797401428223;2470;31;3;2471
87;1.3957116603851318;2468;29;4;2483
88;1.4101989269256592;2467;30;2;2492
89;1.4246129989624023;2467;30;3;2472
90;1.4388961791992188;2469;31;3;2472
91;1.4532265663146973;2467;30;2;2473
92;1.4675025939941406;2470;30;3;2474
93;1.4818816184997559;2468;30;2;2473
94;1.4961628913879395;2467;30;2;2472
95;1.5105268955230713;2468;30;3;2473
96;1.524885892868042;2469;32;3;2476
97;1.539208173751831;2467;30;3;2471
98;1.5536065101623535;2465;30;2;2471
99;1.5679595470428467;2467;30;2;2472
100;1.5823354721069336;2468;29;3;2473
101;1.5967316627502441;2466;30;2;2472
102;1.6110386848449707;2468;30;3;2473
103;1.6253948211669922;2469;29;3;2474
104;1.6397669315338135;2468;31;3;2453
105;1.6631340980529785;2435;30;3;2464
106;1.6779193878173828;2466;30;3;2471
107;1.6922636032104492;2466;31;3;2472
108;1.7065937519073486;2469;30;3;2472
109;1.7210378646850586;2467;31;2;2471
110;1.7354199886322021;2467;31;3;2472
111;1.7497682571411133;2468;30;2;2474
112;1.7641451358795166;2469;30;3;2463
113;1.7810156345367432;2451;31;3;2458
114;1.7998855113983154;2453;30;3;2431
115;1.8275988101959229;2421;29;4;2460
116;1.8464670181274414;2450;30;3;2458
117;1.8653180599212646;2451;30;3;2466
118;1.8813183307647705;2465;31;3;2469
119;1.8959643840789795;2469;30;4;2518
120;1.910524606704712;2467;31;3;2472
121;1.9252698421478271;2468;31;3;2475
122;1.9394559860229492;2469;30;3;2474
123;1.9538650512695312;2470;30;3;2471
124;1.9681291580200195;2466;30;3;2473
125;1.9825360774993896;2468;31;2;2475
126;1.9969842433929443;2468;29;3;2473
127;2.011425495147705;2469;30;3;2473
128;2.0257787704467773;2468;30;3;2471
129;2.040139675140381;2466;31;3;2473
130;2.054563045501709;2467;31;3;2471
131;2.0689451694488525;2467;30;3;2474
132;2.083249092102051;2469;30;3;2472
133;2.097682476043701;2468;30;3;2471
134;2.1120665073394775;2468;30;2;2473
135;2.126373529434204;2466;31;3;2471
136;2.1407227516174316;2467;30;3;2472
137;2.155210018157959;2468;29;3;2475
138;2.1718268394470215;2457;30;2;2468
139;2.1861133575439453;2469;30;4;2475
140;2.2003743648529053;2466;30;3;2472
141;2.214695453643799;2469;32;3;2471
142;2.229046583175659;2468;31;3;2473
143;2.243358612060547;2469;29;3;2472
144;2.257762908935547;2469;29;2;2473
145;2.2721328735351562;2467;31;2;2474
146;2.2863950729370117;2470;31;3;2473
147;2.3009543418884277;2468;30;3;2474
148;2.3153364658355713;2469;30;3;2474
149;2.3296375274658203;2471;31;2;2474
150;2.3439435958862305;2470;30;3;2473
151;2.3582587242126465;2468;29;3;2473
152;2.372654914855957;2466;30;3;2473
153;2.386934995651245;2467;29;3;2474
154;2.4012951850891113;2472;30;2;2474
155;2.415644407272339;2469;31;3;2473
156;2.4299354553222656;2468;29;3;2473
157;2.4442596435546875;2470;30;3;2473
158;2.458582878112793;2468;31;3;2473
159;2.472892999649048;2468;30;2;2473
160;2.487175941467285;2468;30;3;2474
161;2.5016329288482666;2469;29;3;2473
162;2.5160071849823;2471;31;3;2473
163;2.5303163528442383;2469;31;3;2473
164;2.54465651512146;2466;30;3;2473
165;2.5590755939483643;2466;29;3;2473
166;2.5740649700164795;2463;29;3;2458
167;2.5928330421447754;2452;31;3;2459
168;2.6116862297058105;2448;32;3;2460
169;2.630378246307373;2450;31;3;2459
170;2.649219512939453;2449;31;4;2459
171;2.667961597442627;2451;31;3;2458
172;2.6868786811828613;2451;30;2;2460
173;2.705725908279419;2449;30;3;2456
174;2.7245752811431885;2451;30;3;2456
175;2.743335485458374;2452;31;3;2460
176;2.762195348739624;2448;30;4;2458
177;2.7810206413269043;2454;31;3;2458
178;2.7998428344726562;2451;30;3;2456
179;2.8185861110687256;2449;31;3;2458
180;2.8374083042144775;2451;31;3;2456
181;2.8561863899230957;2448;31;3;2458
182;2.87536358833313;2451;30;3;2457
183;2.8941407203674316;2449;30;3;2460
184;2.9129137992858887;2448;31;2;2460
185;2.9316489696502686;2450;30;3;2458
186;2.9503872394561768;2451;30;2;2458
187;2.9692153930664062;2455;29;3;2458
188;2.987905502319336;2452;30;2;2460
189;3.0067708492279053;2449;30;3;2459
190;3.0255320072174072;2448;31;3;2459
191;3.044288158416748;2452;30;3;2458
192;3.06302809715271;2451;30;4;2462
193;3.0817065238952637;2451;31;3;2459
194;3.10038161277771;2452;30;3;2459
195;3.119227886199951;2450;30;4;2461
196;3.1379430294036865;2449;30;3;2457
197;3.1568663120269775;2450;30;3;2459
198;3.1756234169006348;2450;29;3;2459
199;3.194436550140381;2449;30;2;2460
200;3.2131757736206055;2449;30;4;2459
201;3.232123851776123;2450;29;3;2461
202;3.2507760524749756;2448;30;2;2459
203;3.270033121109009;2451;30;3;2459
204;3.2886364459991455;2450;30;3;2461
205;3.3073697090148926;2450;31;3;2442
206;3.3344647884368896;2433;30;3;2456
207;3.3532400131225586;2452;31;3;2478
208;3.3721072673797607;2450;29;2;2479
209;3.3907363414764404;2451;31;3;2457
210;3.4104764461517334;2449;30;3;2457
211;3.429194688796997;2449;31;4;2461
212;3.4479689598083496;2450;32;4;2462
213;3.466825246810913;2448;30;3;2459
214;3.485732316970825;2451;30;2;2459
215;3.5045504570007324;2452;30;3;2460
216;3.523266553878784;2449;30;3;2458
217;3.5421316623687744;2452;31;3;2459
218;3.560991048812866;2448;31;3;2458
219;3.579725980758667;2453;31;2;2460
220;3.598447322845459;2450;31;2;2461
221;3.6172735691070557;2448;30;3;2458
222;3.636084794998169;2453;31;3;2457
223;3.6549739837646484;2449;31;4;2447
224;3.6769280433654785;2438;31;4;2461
225;3.6956071853637695;2451;30;3;2457
226;3.714808225631714;2450;30;3;2456
227;3.733602523803711;2450;30;3;2460
228;3.752410888671875;2447;30;2;2460
229;3.7711517810821533;2451;32;3;2458
230;3.789997100830078;2453;31;3;2459
231;3.808690071105957;2449;31;3;2457
232;3.827455520629883;2451;31;2;2457
233;3.846292734146118;2450;31;3;2457
234;3.86515474319458;2449;30;2;2461
235;3.883821964263916;2448;31;3;2457
236;3.9026641845703125;2451;31;3;2458
237;3.921555519104004;2451;31;3;2459
238;3.9402287006378174;2448;31;2;2461
239;3.959082841873169;2450;30;2;2458
240;3.9777588844299316;2454;30;3;2460
241;3.996722936630249;2450;30;2;2458
242;4.015543222427368;2450;30;4;2461
243;4.034395456314087;2451;30;2;2462
244;4.053109407424927;2449;30;3;2460
245;4.0719146728515625;2449;30;3;2460
246;4.090561866760254;2452;32;3;2458
247;4.109379053115845;2452;31;2;2460
248;4.128164291381836;2451;31;3;2457
249;4.1470112800598145;2450;30;3;2461
250;4.165767669677734;2450;31;3;2459
251;4.184470891952515;2450;30;3;2462
252;4.203107833862305;2450;30;2;2460
253;4.221902132034302;2449;30;3;2460
254;4.2405571937561035;2451;31;3;2458
255;4.259385585784912;2453;31;3;2457
256;4.278133869171143;2449;30;3;2458
257;4.296947002410889;2453;30;4;2459
258;4.3159449100494385;2449;30;3;2459
259;4.334781169891357;2448;31;2;2460
260;4.353585481643677;2452;30;3;2475
261;4.372616529464722;2451;31;3;2456
262;4.391518592834473;2451;30;3;2453
263;4.412106990814209;2448;30;3;2459
264;4.430915117263794;2450;30;3;2465
265;4.449525356292725;2450;30;3;2461
266;4.468302249908447;2450;30;2;2463
267;4.487205505371094;2446;31;3;2481
268;4.506017684936523;2449;30;3;2458
269;4.524846792221069;2451;30;3;2459
270;4.54365611076355;2449;29;3;2467
271;4.562496185302734;2449;30;4;2459
272;4.581267356872559;2451;31;2;2470
273;4.600078582763672;2452;30;3;2457
274;4.61882472038269;2450;31;3;2459
275;4.6375181674957275;2449;29;3;2460
276;4.656346082687378;2452;31;3;2459
277;4.675166368484497;2451;31;4;2493
278;4.693748474121094;2450;31;3;2459
279;4.712596654891968;2449;31;3;2460
280;4.731413841247559;2450;30;3;2461
281;4.7501912117004395;2450;31;3;2459
282;4.769042253494263;2450;30;4;2487
283;4.7877655029296875;2451;30;3;2459
284;4.806549549102783;2450;31;3;2459
285;4.833918809890747;2433;30;3;2458
286;4.852743864059448;2452;30;3;2457
287;4.871634244918823;2448;30;2;2465
288;4.888597249984741;2457;30;2;2522
289;4.902964353561401;2470;31;3;2473
290;4.917344570159912;2468;31;3;2475
291;4.931773662567139;2467;31;3;2472
292;4.946014881134033;2470;30;4;2475
293;4.9603588581085205;2468;29;3;2510
294;4.974782228469849;2466;30;2;2474
295;4.989173173904419;2469;29;3;2481
296;5.003526449203491;2469;30;3;2507
297;5.017937660217285;2468;29;3;2471
298;5.032361745834351;2465;31;3;2473
299;5.0466578006744385;2468;30;4;2483
300;5.06105899810791;2465;31;3;2473
301;5.075443267822266;2469;30;2;2474
302;5.089737176895142;2469;29;3;2473
303;5.104126453399658;2469;30;4;2488
304;5.118431568145752;2466;30;3;2473
305;5.132781505584717;2470;30;3;2475
306;5.14713978767395;2468;30;3;2486
307;5.161545991897583;2467;31;3;2472
308;5.175863981246948;2468;30;4;2473
309;5.190178155899048;2467;29;3;2478
310;5.207475185394287;2458;30;3;2475
311;5.2218146324157715;2466;29;3;2473
312;5.236060619354248;2467;29;3;2474
313;5.250328779220581;2472;31;3;2473
314;5.264652729034424;2469;31;2;2472
315;5.279037952423096;2468;30;3;2471
316;5.293352127075195;2466;31;4;2472
317;5.307691335678101;2466;30;3;2473
318;5.322050333023071;2467;30;3;2471
319;5.336318492889404;2467;31;4;2473
320;5.350653648376465;2469;31;3;2473
321;5.36506986618042;2469;30;3;2474
322;5.37935996055603;2469;30;3;2473
323;5.393691062927246;2468;31;3;2472
324;5.40799617767334;2468;29;3;2472
325;5.422584295272827;2468;30;3;2473
326;5.436849355697632;2467;30;3;2473
327;5.451213598251343;2470;30;2;2473
328;5.465604543685913;2467;30;3;2472
329;5.479918956756592;2469;30;2;2473
330;5.494375944137573;2467;30;3;2472
331;5.508723258972168;2468;31;2;2473
332;5.52311110496521;2467;30;2;2473
333;5.537412405014038;2468;31;4;2472
334;5.551818370819092;2469;31;3;2472
335;5.566143751144409;2469;31;4;2473
336;5.580455780029297;2470;30;2;2470
337;5.596087694168091;2458;30;3;2456
338;5.614920139312744;2448;30;3;2460
339;5.633639097213745;2450;30;3;2459
340;5.652427434921265;2448;31;3;2456
341;5.6711695194244385;2451;29;3;2457
342;5.689853668212891;2450;30;3;2459
343;5.708558082580566;2450;30;3;2458
344;5.72736120223999;2450;31;3;2458
345;5.746231317520142;2452;31;3;2458
346;5.765132427215576;2453;30;2;2460
347;5.783864498138428;2450;30;3;2461
348;5.8026158809661865;2449;30;3;2457
349;5.821446895599365;2450;30;2;2458
350;5.840210199356079;2451;31;3;2459
351;5.859013319015503;2450;30;3;2458
352;5.877797603607178;2450;31;2;2458
353;5.8965606689453125;2451;30;3;2459
354;5.915377855300903;2450;31;3;2459
355;5.934049129486084;2450;31;2;2462
356;5.952757358551025;2451;31;2;2460
357;5.971631288528442;2450;30;2;2458
358;5.990362644195557;2449;31;3;2458
359;6.009342670440674;2399;31;3;2430
360;6.051174163818359;2427;30;3;2454
361;6.070284366607666;2450;32;3;2458
362;6.089057445526123;2452;29;3;2470
363;6.104038715362549;2467;31;2;2472
364;6.11857271194458;2470;30;2;2473
365;6.132911920547485;2468;30;4;2474
366;6.147226095199585;2468;30;2;2472
367;6.1616291999816895;2469;30;3;2474
368;6.1759192943573;2471;30;2;2473
369;6.190091609954834;2467;30;3;2473
370;6.204476594924927;2469;32;3;2472
371;6.218787908554077;2468;30;4;2472
372;6.233021020889282;2469;30;2;2475
373;6.247313976287842;2467;30;3;2474
374;6.2617902755737305;2471;30;3;2473
375;6.276060104370117;2469;31;3;2472
376;6.290265321731567;2468;31;2;2475
377;6.304571628570557;2469;31;2;2450
378;6.325336933135986;2450;30;4;2474
379;6.3395836353302;2471;30;3;2472
380;6.3538429737091064;2468;31;2;2474
381;6.36815619468689;2470;30;3;2471
382;6.382509231567383;2466;30;3;2474
383;6.396837472915649;2470;30;3;2474
384;6.411060571670532;2471;31;3;2473
385;6.425452470779419;2469;30;2;2476
386;6.4396278858184814;2469;30;3;2473
387;6.453856945037842;2469;31;3;2474
388;6.468180894851685;2471;30;3;2472
389;6.48250412940979;2470;30;2;2476
390;6.4967262744903564;2469;31;3;2473
391;6.5110273361206055;2468;30;3;2473
392;6.525350570678711;2467;31;2;2473
393;6.539573669433594;2469;29;3;2473
394;6.554034948348999;2469;30;3;2467
395;6.571080923080444;2456;31;3;2471
396;6.58541202545166;2467;32;2;2474
397;6.5996692180633545;2471;30;3;2472
398;6.613922357559204;2467;31;2;2473
399;6.628157377243042;2469;30;3;2450
400;6.64798378944397;2451;30;3;2472
401;6.662639856338501;2467;31;3;2474
402;6.676908016204834;2472;30;4;2472
403;6.691133260726929;2468;30;3;2474
404;6.705439329147339;2467;31;3;2472
405;6.719774484634399;2469;31;3;2472
406;6.734028577804565;2471;30;2;2472
407;6.748279809951782;2469;30;3;2475
408;6.762589693069458;2468;31;3;2472
409;6.776834964752197;2467;29;3;2474
410;6.791060924530029;2471;30;4;2467
411;6.806872367858887;2461;30;3;2460
412;6.825609445571899;2448;31;3;2461
413;6.844265460968018;2452;30;4;2461
414;6.862870693206787;2451;30;2;2459
415;6.8818769454956055;2448;29;3;2460
416;6.900393962860107;2451;30;3;2460
417;6.919236421585083;2450;31;3;2460
418;6.937833547592163;2449;29;4;2460
419;6.956543684005737;2449;31;3;2458
420;6.9753007888793945;2453;31;3;2458
421;6.993957996368408;2452;31;3;2459
422;7.01264214515686;2450;29;3;2462
423;7.03137731552124;2448;31;3;2459
424;7.050081491470337;2452;30;3;2459
425;7.068742752075195;2448;30;3;2458
426;7.087470769882202;2455;30;3;2461
427;7.106158018112183;2449;30;3;2457
428;7.1249120235443115;2451;32;3;2460
429;7.143630266189575;2451;31;2;2460
430;7.162391662597656;2450;31;2;2462
431;7.18111777305603;2448;31;3;2459
432;7.1996870040893555;2450;30;3;2459
433;7.218403100967407;2449;31;3;2459
434;7.237130165100098;2449;30;3;2458
435;7.255753517150879;2454;30;2;2461
436;7.274467468261719;2450;30;3;2459
437;7.293066740036011;2449;31;4;2460
438;7.3117897510528564;2451;30;3;2461
439;7.330552101135254;2448;30;3;2457
440;7.349284410476685;2452;30;3;2461
441;7.367908239364624;2452;30;3;2459
442;7.386714696884155;2451;31;2;2460
443;7.405440807342529;2451;31;3;2459
444;7.424048900604248;2451;31;3;2461
445;7.442694187164307;2451;30;3;2460
446;7.46140718460083;2451;32;3;2458
447;7.480176687240601;2452;30;2;2461
448;7.498687744140625;2450;31;3;2457
449;7.517371892929077;2451;31;3;2458
450;7.536121129989624;2453;31;3;2459
451;7.554858207702637;2451;31;3;2457
452;7.5736083984375;2451;30;3;2461
453;7.5923566818237305;2449;31;2;2459
454;7.611032724380493;2451;30;4;2458
455;7.629770994186401;2453;30;3;2458
456;7.648421049118042;2451;30;3;2459
457;7.667176246643066;2450;30;3;2459
458;7.6864025592803955;2449;31;4;2459
459;7.70523738861084;2451;31;3;2459
460;7.723858594894409;2450;30;3;2460
461;7.742607831954956;2450;31;2;2460
462;7.761347055435181;2451;31;3;2457
463;7.780130386352539;2452;30;4;2459
464;7.798737287521362;2449;29;3;2442
465;7.825693607330322;2429;31;3;2449
466;7.844438076019287;2451;31;3;2459
467;7.8631579875946045;2451;30;4;2461
468;7.8818840980529785;2450;31;2;2462
469;7.900442361831665;2448;30;3;2470
470;7.9156036376953125;2470;29;3;2473
471;7.9298436641693115;2468;30;3;2473
472;7.943960905075073;2469;31;3;2474
473;7.958187103271484;2470;30;3;2471
474;7.972447156906128;2467;29;3;2473
475;7.98667311668396;2468;30;3;2475
476;8.000948429107666;2468;31;3;2471
477;8.01526141166687;2468;29;3;2473
478;8.029463529586792;2468;31;2;2476
479;8.043705940246582;2471;30;3;2471
480;8.05806279182434;2469;30;3;2469
481;8.074611902236938;2459;29;3;2474
482;8.088917255401611;2470;30;3;2474
483;8.103153467178345;2470;30;4;2472
484;8.117363452911377;2469;30;2;2473
485;8.131733417510986;2465;31;3;2472
486;8.145939588546753;2470;31;2;2473
487;8.160492897033691;2464;30;3;2425
488;8.208175420761108;2384;30;3;2453
489;8.223507404327393;2466;30;4;2469
490;8.2387375831604;2464;30;3;2469
491;8.25399374961853;2465;31;3;2466
492;8.269929885864258;2453;29;3;2477
493;8.286641120910645;2463;29;3;2487
494;8.301879405975342;2467;31;3;2470
495;8.317281246185303;2464;30;4;2471
496;8.3325674533844;2463;30;3;2473
497;8.348219633102417;2464;30;3;2483
498;8.363501787185669;2463;30;4;2471
499;8.378743886947632;2462;32;2;2469
500;8.393953084945679;2463;29;4;2469
501;8.413419246673584;2448;31;3;2450
502;8.43393850326538;2448;30;3;2490
503;8.449219465255737;2466;31;2;2471
504;8.464617729187012;2462;30;2;2472
505;8.479773998260498;2466;30;3;2472
506;8.495378017425537;2463;29;2;2471
507;8.510505199432373;2462;30;3;2467
508;8.52615213394165;2463;30;3;2469
509;8.54208254814148;2464;29;3;2470
510;8.557640790939331;2463;29;3;2465
511;8.577852010726929;2441;31;3;2463
512;8.593240737915039;2461;30;2;2473
513;8.608349084854126;2466;30;4;2471
514;8.623675107955933;2461;31;4;2470
515;8.639052391052246;2465;30;3;2470
516;8.654584646224976;2465;30;2;2471
517;8.670048713684082;2462;31;3;2477
518;8.685358762741089;2466;30;3;2469
519;8.700738906860352;2463;31;3;2472
520;8.71612000465393;2466;30;3;2474
521;8.731336116790771;2467;30;3;2470
522;8.746727466583252;2466;29;3;2470
523;8.76221251487732;2463;30;3;2469
524;8.78164267539978;2448;31;3;2422
525;8.816144943237305;2419;29;3;2435
526;8.842816352844238;2427;31;3;2423
527;8.876063585281372;2411;30;2;2457
528;8.895144701004028;2452;30;3;2472
529;8.910401821136475;2463;30;4;2469
530;8.92584490776062;2465;29;3;2469
531;8.94121527671814;2462;30;3;2469
532;8.95637035369873;2464;30;3;2453
533;8.979621648788452;2434;30;3;2463
534;8.994840621948242;2461;31;4;2461
535;9.012963771820068;2454;30;2;2475
536;9.027209997177124;2466;30;3;2473
