;Time;Thrust;BEM pressure;N2O pressure
0;0.0;163835;0;-5
1;0.012766599655151367;163835;0;0
2;0.02369213104248047;163835;0;0
3;0.03573489189147949;163835;0;-5
4;0.04668283462524414;163835;5;5
5;0.05760550498962402;163835;5;0
6;0.0687263011932373;163835;5;0
7;0.07969307899475098;163835;5;0
8;0.09068965911865234;163835;0;0
9;0.10175657272338867;163835;0;0
10;0.11270523071289062;163835;0;0
11;0.12368607521057129;163835;0;0
12;0.13470077514648438;163835;0;0
13;0.14574456214904785;163835;0;0
14;0.1566944122314453;163835;5;0
15;0.16766023635864258;163835;5;0
16;0.17864179611206055;163835;0;-5
17;0.18964171409606934;163835;5;0
18;0.2005784511566162;163835;5;0
19;0.21155500411987305;163835;10;0
20;0.22256779670715332;163835;5;0
21;0.2335205078125;163835;5;0
22;0.2445673942565918;163835;0;0
23;0.2556271553039551;163835;0;0
24;0.26656579971313477;163835;5;0
25;0.27750468254089355;163835;0;0
26;0.2885115146636963;163835;0;0
27;0.299511194229126;163835;0;5
28;0.3104519844055176;163835;10;0
29;0.3213918209075928;163835;0;0
30;0.33238649368286133;163835;5;5
31;0.3433842658996582;163835;0;5
32;0.3543219566345215;163835;5;5
33;0.365264892578125;163835;0;-5
34;0.376232385635376;163835;0;-5
35;0.3871622085571289;163835;0;0
36;0.3981308937072754;163835;0;0
37;0.40917062759399414;163835;0;0
38;0.4201335906982422;163835;5;0
39;0.43105006217956543;163835;5;5
40;0.4450569152832031;163835;5;0
41;0.45605945587158203;163835;5;-5
42;0.467029333114624;163835;5;5
43;0.4780440330505371;163835;0;0
44;0.4889950752258301;163835;0;0
45;0.4999535083770752;163835;0;0
46;0.5108695030212402;163835;0;0
47;0.5220754146575928;163835;0;0
48;0.5330319404602051;163835;0;-10
49;0.5440495014190674;163835;0;0
50;0.5550093650817871;163835;5;0
51;0.5659971237182617;163835;0;5
52;0.5769782066345215;163835;-5;5
53;0.587958812713623;163835;5;0
54;0.5989305973052979;163835;0;0
55;0.6099152565002441;163835;5;5
56;0.620880126953125;163835;0;0
57;0.6319749355316162;163835;0;-5
58;0.6429233551025391;163835;5;0
59;0.6539373397827148;163835;5;0
60;0.6649141311645508;163835;5;0
61;0.6759448051452637;163835;5;5
62;0.6869003772735596;163835;5;0
63;0.6978602409362793;163835;5;5
64;0.7088611125946045;163835;0;0
65;0.7198238372802734;163835;0;-5
66;0.7307965755462646;163835;0;0
67;0.7419583797454834;163835;0;0
68;0.7529270648956299;163835;0;0
69;0.7639107704162598;163835;0;5
70;0.7749245166778564;163835;0;0
71;0.7859423160552979;163835;5;0
72;0.7969341278076172;163835;0;0
73;0.8078899383544922;163835;-5;0
74;0.81884765625;163835;5;0
75;0.8297653198242188;163835;5;0
76;0.8407702445983887;163835;5;0
77;0.8517467975616455;163835;5;0
78;0.8627316951751709;163835;5;5
79;0.8736944198608398;163835;0;0
80;0.884706974029541;163835;5;10
81;0.8957240581512451;163835;5;5
82;0.9066376686096191;163835;0;0
83;0.917717456817627;163835;0;0
84;0.9286770820617676;163835;5;0
85;0.9396920204162598;163835;5;5
86;0.9506645202636719;163835;5;5
87;0.9617094993591309;163835;5;0
88;0.9726600646972656;163835;0;0
89;0.983623743057251;163835;0;0
90;0.9946656227111816;163835;10;0
91;1.0056953430175781;163835;5;0
92;1.016646146774292;163835;0;0
93;1.0276470184326172;163835;5;0
94;1.038625717163086;163835;0;5
95;1.0496575832366943;163835;5;0
96;1.0605783462524414;163835;0;5
97;1.0716018676757812;163835;5;0
98;1.0825836658477783;163835;-5;-5
99;1.0936133861541748;163835;5;0
100;1.1046464443206787;163835;0;0
101;1.1157019138336182;163835;5;5
102;1.1266975402832031;163835;5;10
103;1.1376433372497559;163835;0;0
104;1.148637294769287;163835;0;0
105;1.1596930027008057;163835;5;0
106;1.1706628799438477;163835;0;5
107;1.1817114353179932;163835;5;-5
108;1.1927173137664795;163835;0;5
109;1.2036991119384766;163835;5;0
110;1.2147207260131836;163835;0;0
111;1.227494478225708;163835;0;0
112;1.2420880794525146;163835;0;0
113;1.2565267086029053;163835;5;5
114;1.2708876132965088;163835;5;5
115;1.2856521606445312;163835;0;0
116;1.3001646995544434;163835;5;0
117;1.3146615028381348;163835;5;5
118;1.3290340900421143;163835;5;5
119;1.3434937000274658;163835;0;0
120;1.3579175472259521;163835;5;-5
121;1.3725292682647705;163835;5;0
122;1.3869280815124512;163835;5;5
123;1.4014215469360352;163835;0;0
124;1.4159114360809326;163835;5;5
125;1.430509090423584;163835;0;0
126;1.4453117847442627;163835;5;5
127;1.459768295288086;163835;5;5
128;1.4742000102996826;163835;0;0
129;1.4885756969451904;163835;0;0
130;1.5030972957611084;163835;5;0
131;1.5175750255584717;163835;0;0
132;1.53218674659729;163835;5;0
133;1.5466563701629639;163835;5;0
134;1.5611679553985596;163835;5;5
135;1.5756995677947998;163835;0;0
136;1.5901973247528076;163835;-5;0
137;1.6047389507293701;163835;5;0
138;1.6191928386688232;163835;0;0
139;1.6336445808410645;163835;0;0
140;1.6480989456176758;163835;5;5
141;1.6627357006072998;163835;0;0
142;1.67726731300354;163835;5;0
143;1.6916530132293701;163835;0;0
144;1.706150770187378;163835;5;0
145;1.7206356525421143;163835;5;0
146;1.7352700233459473;163835;5;0
147;1.749734878540039;163835;5;0
148;1.7641944885253906;163835;0;0
149;1.7786452770233154;163835;0;0
150;1.7931697368621826;163835;0;0
151;1.8076677322387695;163835;5;5
152;1.822153091430664;163835;5;-5
153;1.8366057872772217;163835;5;0
154;1.854628562927246;163835;0;0
155;1.8690252304077148;163835;0;5
156;1.8834707736968994;163835;5;5
157;1.8978426456451416;163835;0;0
158;1.9125831127166748;163835;0;0
159;1.927083969116211;163835;5;0
160;1.9415063858032227;163835;-5;5
161;1.9560184478759766;163835;5;5
162;1.9705469608306885;163835;-5;5
163;1.9850585460662842;163835;0;10
164;1.9994583129882812;163835;0;0
165;2.0138609409332275;163835;0;0
166;2.028261661529541;163835;0;0
167;2.042790412902832;163835;5;0
168;2.0573179721832275;163835;5;0
169;2.0718326568603516;163835;0;0
170;2.0862293243408203;163835;5;0
171;2.1007330417633057;163835;0;0
172;2.115175724029541;163835;0;5
173;2.129561185836792;163835;5;0
174;2.1440632343292236;163835;0;0
175;2.1584837436676025;163835;0;0
176;2.1729674339294434;163835;5;0
177;2.1874680519104004;163835;5;0
178;2.202012777328491;163835;5;0
179;2.2163894176483154;163835;5;0
180;2.2309231758117676;163835;0;0
181;2.245591640472412;163835;5;0
182;2.260021448135376;163835;0;-5
183;2.2744569778442383;163835;0;5
184;2.288874864578247;163835;0;0
185;2.3033294677734375;163835;-5;5
186;2.3177900314331055;163835;0;0
187;2.3325748443603516;163835;0;0
188;2.3471004962921143;163835;0;0
189;2.3615591526031494;163835;5;-5
190;2.3760769367218018;163835;5;0
191;2.3905885219573975;163835;0;0
192;2.405118227005005;163835;5;0
193;2.419477939605713;163835;0;0
194;2.433894634246826;163835;5;0
195;2.448331117630005;163835;0;0
196;2.462859869003296;163835;0;5
197;2.4773857593536377;163835;5;0
198;2.491913318634033;163835;5;0
199;2.506330966949463;163835;5;-5
200;2.520824432373047;163835;0;5
201;2.535597324371338;163835;5;0
202;2.550039052963257;163835;0;0
203;2.5645415782928467;163835;5;0
204;2.5789644718170166;163835;5;0
205;2.5933899879455566;163835;5;0
206;2.607872724533081;163835;5;0
207;2.622575283050537;163835;0;0
208;2.6370768547058105;163835;0;10
209;2.651540756225586;163835;0;0
210;2.6660585403442383;163835;5;5
211;2.68056321144104;163835;0;0
212;2.695091724395752;163835;0;0
213;2.709505558013916;163835;10;0
214;2.723978281021118;163835;5;0
215;2.73833966255188;163835;5;0
216;2.7529635429382324;163835;5;5
217;2.76747727394104;163835;0;5
218;2.782031774520874;163835;5;5
219;2.7964444160461426;163835;0;0
220;2.8108670711517334;163835;0;0
221;2.825591802597046;163835;0;5
222;2.8399994373321533;163835;5;0
223;2.8545432090759277;163835;5;0
224;2.8689658641815186;163835;5;0
225;2.883396625518799;163835;0;5
226;2.8978781700134277;163835;0;5
227;2.9126338958740234;163835;5;0
228;2.927077531814575;163835;0;0
229;2.941453218460083;163835;5;0
230;2.9560558795928955;163835;0;0
231;2.9705734252929688;163835;0;5
232;2.9850881099700928;163835;0;0
233;2.9996888637542725;163835;0;0
234;3.0141966342926025;163835;0;0
235;3.0285582542419434;163835;5;0
236;3.043041944503784;163835;-5;5
237;3.057588577270508;163835;5;0
238;3.072150230407715;163835;0;0
239;3.0865461826324463;163835;5;-5
240;3.1009654998779297;163835;0;0
241;3.115584373474121;163835;-5;5
242;3.129948139190674;163835;0;0
243;3.144368886947632;163835;5;0
244;3.1587533950805664;163835;5;0
245;3.173182249069214;163835;5;5
246;3.1876797676086426;163835;5;0
247;3.2021775245666504;163835;5;0
248;3.216583013534546;163835;5;0
249;3.23091983795166;163835;5;0
250;3.2456796169281006;163835;0;0
251;3.2601571083068848;163835;5;0
252;3.2746176719665527;163835;5;0
253;3.288998603820801;163835;5;0
254;3.3034489154815674;163835;0;-5
255;3.317824602127075;163835;5;5
256;3.3324475288391113;163835;0;5
257;3.346874237060547;163835;5;0
258;3.3614158630371094;163835;5;5
259;3.376014471054077;163835;5;0
260;3.3904950618743896;163835;0;0
261;3.405038833618164;163835;5;5
262;3.4194343090057373;163835;0;0
263;3.433762311935425;163835;5;0
264;3.448173999786377;163835;0;5
265;3.4659175872802734;163835;0;5
266;3.480408191680908;163835;5;-5
267;3.4949429035186768;163835;5;0
268;3.5094006061553955;163835;0;5
269;3.523851156234741;163835;5;0
270;3.5381808280944824;163835;5;5
271;3.55271053314209;163835;5;5
272;3.567214250564575;163835;5;-5
273;3.5815858840942383;163835;0;5
274;3.5961155891418457;163835;0;0
275;3.6106131076812744;163835;0;5
276;3.625119924545288;163835;5;5
277;3.6395328044891357;163835;0;5
278;3.654045343399048;163835;0;5
279;3.6684730052948;163835;5;0
280;3.6830055713653564;163835;-5;-5
281;3.697556495666504;163835;0;5
282;3.7121188640594482;163835;5;0
283;3.7265427112579346;163835;0;5
284;3.7409863471984863;163835;0;5
285;3.7556440830230713;163835;0;0
286;3.7701315879821777;163835;0;0
287;3.784590244293213;163835;5;0
288;3.79897403717041;163835;0;5
289;3.813450574874878;163835;0;0
290;3.827862501144409;163835;0;0
291;3.8426060676574707;163835;0;5
292;3.857158899307251;163835;5;-5
293;3.8716373443603516;163835;0;0
294;3.886108160018921;163835;5;0
295;3.900646924972534;163835;0;0
296;3.9151864051818848;163835;-5;0
297;3.9295661449432373;163835;0;0
298;3.94413685798645;163835;5;0
299;3.958536386489868;163835;5;0
300;3.973050117492676;163835;0;0
301;3.987565755844116;163835;0;5
302;4.002047300338745;163835;5;0
303;4.016592979431152;163835;0;-5
304;4.03096604347229;163835;5;0
305;4.045729398727417;163835;0;0
306;4.060279130935669;163835;5;5
307;4.074728965759277;163835;0;5
308;4.089146614074707;163835;5;5
309;4.103599309921265;163835;5;5
310;4.118037939071655;163835;0;0
311;4.132742643356323;163835;0;5
312;4.147289276123047;163835;0;0
313;4.161865949630737;163835;0;5
314;4.176302433013916;163835;0;5
315;4.190823316574097;163835;5;0
316;4.2054009437561035;163835;0;0
317;4.219796657562256;163835;5;0
318;4.234215259552002;163835;0;0
319;4.248658180236816;163835;0;0
320;4.263136625289917;163835;0;0
321;4.277627229690552;163835;0;0
322;4.292126893997192;163835;5;5
323;4.3065526485443115;163835;0;0
324;4.320943355560303;163835;0;0
325;4.3356242179870605;163835;-5;0
326;4.350119590759277;163835;5;-5
327;4.364684581756592;163835;5;0
328;4.37910795211792;163835;0;0
329;4.393552780151367;163835;0;5
330;4.40796422958374;163835;5;0
331;4.422611236572266;163835;5;-5
332;4.438198804855347;163835;5;5
333;4.4538414478302;163835;0;5
334;4.468788146972656;163835;0;0
335;4.484057664871216;163835;5;-5
336;4.498674392700195;163835;0;0
337;4.514370918273926;163835;5;0
338;4.5288169384002686;163835;5;0
339;4.543541431427002;163835;5;-5
340;4.557996034622192;163835;5;-5
341;4.572614908218384;163835;5;0
342;4.587120294570923;163835;0;0
343;4.601530075073242;163835;0;0
344;4.616005897521973;163835;0;0
345;4.630417346954346;163835;0;0
346;4.64511513710022;163835;0;0
347;4.659560918807983;163835;5;5
348;4.674086570739746;163835;0;5
349;4.68847393989563;163835;0;0
350;4.7029876708984375;163835;5;0
351;4.717507600784302;163835;0;-5
352;4.7320520877838135;163835;0;0
353;4.746478796005249;163835;5;0
354;4.760951519012451;163835;-5;5
355;4.7755982875823975;163835;5;0
356;4.789987802505493;163835;0;0
357;4.804392576217651;163835;0;0
358;4.818827152252197;163835;5;0
359;4.833232879638672;163835;10;-5
360;4.847824573516846;163835;0;0
361;4.862462043762207;163835;0;-5
362;4.8768980503082275;163835;0;0
363;4.89138650894165;163835;0;0
364;4.905908107757568;163835;5;0
365;4.920432806015015;163835;5;5
366;4.934975624084473;163835;0;5
367;4.949417352676392;163835;5;0
368;4.963918924331665;163835;0;0
369;4.978336811065674;163835;0;0
370;4.993029356002808;163835;0;0
371;5.007559061050415;163835;0;0
372;5.022099733352661;163835;5;5
373;5.036564350128174;163835;5;5
374;5.0509421825408936;163835;5;-5
375;5.069025754928589;163835;5;-5
376;5.083503246307373;163835;5;0
377;5.097913980484009;163835;5;0
378;5.112528562545776;163835;0;5
379;5.126928329467773;163835;0;0
380;5.141402959823608;163835;0;5
381;5.155909538269043;163835;0;0
382;5.1704583168029785;163835;0;10
383;5.18503212928772;163835;5;0
384;5.199446678161621;163835;0;0
385;5.213898420333862;163835;0;0
386;5.22831392288208;163835;5;0
387;5.242819786071777;163835;0;0
388;5.2572784423828125;163835;5;0
389;5.27191686630249;163835;0;5
390;5.286353826522827;163835;0;5
391;5.300851345062256;163835;0;0
392;5.315519094467163;163835;0;0
393;5.329930782318115;163835;0;5
394;5.344377517700195;163835;5;5
395;5.35883092880249;163835;5;5
396;5.373310804367065;163835;0;0
397;5.387784481048584;163835;0;0
398;5.402398109436035;163835;5;5
399;5.416852951049805;163835;0;-5
400;5.4314563274383545;163835;0;0
401;5.445980072021484;163835;5;0
402;5.460529804229736;163835;5;0
403;5.47503137588501;163835;5;0
404;5.489475250244141;163835;0;0
405;5.50400185585022;163835;0;0
406;5.518475532531738;163835;0;0
407;5.533022165298462;163835;0;0
408;5.54762601852417;163835;0;5
409;5.562194585800171;163835;0;5
410;5.576663255691528;163835;0;-5
411;5.591184854507446;163835;0;5
412;5.605733633041382;163835;5;5
413;5.620295286178589;163835;5;5
414;5.634767055511475;163835;0;5
415;5.64919376373291;163835;0;0
416;5.6637351512908936;163835;5;0
417;5.678151845932007;163835;0;5
418;5.6928417682647705;163835;0;5
419;5.7074151039123535;163835;5;0
420;5.721983909606934;163835;0;5
421;5.736417770385742;163835;5;5
422;5.751033306121826;163835;5;0
423;5.765757083892822;163835;0;0
424;5.780321836471558;163835;0;0
425;5.794795513153076;163835;0;0
426;5.809315919876099;163835;0;0
427;5.823838710784912;163835;-5;5
428;5.83825945854187;163835;0;0
429;5.8528361320495605;163835;5;0
430;5.867426633834839;163835;0;0
431;5.881995439529419;163835;0;5
432;5.8964080810546875;163835;5;5
433;5.910906791687012;163835;0;5
434;5.92557954788208;163835;-5;0
435;5.939970970153809;163835;5;0
436;5.954415798187256;163835;0;0
437;5.968889474868774;163835;5;0
438;5.983392238616943;163835;5;5
439;5.9978859424591064;163835;0;5
440;6.0125343799591064;163835;5;0
441;6.026906967163086;163835;5;5
442;6.041443824768066;163835;5;0
443;6.055994510650635;163835;5;-5
444;6.070577144622803;163835;0;0
445;6.08515191078186;163835;5;0
446;6.099562406539917;163835;5;0
447;6.114238023757935;163835;0;0
448;6.128690958023071;163835;-5;0
449;6.143238544464111;163835;5;5
450;6.157793283462524;163835;0;5
451;6.172443866729736;163835;0;5
452;6.1869025230407715;163835;0;0
453;6.201434373855591;163835;0;0
454;6.215998888015747;163835;5;0
455;6.230555534362793;163835;0;0
456;6.245058298110962;163835;0;0
457;6.259541034698486;163835;5;5
458;6.274150609970093;163835;0;0
459;6.288616418838501;163835;0;0
460;6.303112983703613;163835;0;-5
461;6.3177995681762695;163835;0;0
462;6.332479238510132;163835;0;0
463;6.346904993057251;163835;0;5
464;6.361430644989014;163835;5;0
465;6.376012325286865;163835;0;0
466;6.3905651569366455;163835;0;0
467;6.40514063835144;163835;0;0
468;6.419611215591431;163835;5;0
469;6.434061050415039;163835;0;0
470;6.448474645614624;163835;0;0
471;6.463039398193359;163835;0;5
472;6.4775800704956055;163835;0;10
473;6.49211859703064;163835;5;0
474;6.506545305252075;163835;0;0
475;6.520895957946777;163835;10;0
476;6.535707712173462;163835;5;0
477;6.550310373306274;163835;5;0
478;6.564824104309082;163835;5;0
479;6.579354763031006;163835;0;0
480;6.593829393386841;163835;0;0
481;6.608298063278198;163835;5;0
482;6.622842788696289;163835;0;0
483;6.637366533279419;163835;0;5
484;6.6520233154296875;163835;0;5
485;6.669703722000122;163835;0;0
486;6.6842334270477295;163835;0;5
487;6.698719263076782;163835;5;0
488;6.713190793991089;163835;0;-5
489;6.727680444717407;163835;0;5
490;6.742477893829346;163835;5;5
491;6.756912708282471;163835;5;5
492;6.771412372589111;163835;0;5
493;6.7859251499176025;163835;0;5
494;6.8004539012908936;163835;0;5
495;6.81501841545105;163835;0;5
496;6.829461097717285;163835;5;5
497;6.843937635421753;163835;5;5
498;6.858394622802734;163835;5;0
499;6.872997045516968;163835;0;5
500;6.88755202293396;163835;5;0
501;6.902121305465698;163835;5;0
502;6.916583061218262;163835;5;0
503;6.9310338497161865;163835;0;0
504;6.945773601531982;163835;0;0
505;6.960312128067017;163835;5;5
506;6.9748218059539795;163835;5;0
507;6.989345550537109;163835;0;0
508;7.003811359405518;163835;0;0
509;7.018236875534058;163835;-5;0
510;7.03279972076416;163835;5;0
511;7.047465085983276;163835;0;0
512;7.062014818191528;163835;0;5
513;7.076428413391113;163835;0;0
514;7.090868234634399;163835;0;5
515;7.1055097579956055;163835;5;0
516;7.119950532913208;163835;0;5
517;7.134420156478882;163835;0;0
518;7.148802042007446;163835;5;0
519;7.163313627243042;163835;0;0
520;7.177863359451294;163835;0;-5
521;7.192507982254028;163835;0;0
522;7.207048654556274;163835;5;0
523;7.2215471267700195;163835;5;5
524;7.236084938049316;163835;5;0
525;7.2507407665252686;163835;0;5
526;7.26534628868103;163835;0;-5
527;7.27985405921936;163835;5;0
528;7.294337749481201;163835;-5;0
529;7.308828353881836;163835;0;0
530;7.323302984237671;163835;5;0
531;7.337852716445923;163835;0;5
532;7.35259222984314;163835;0;0
533;7.3672261238098145;163835;0;5
534;7.3817267417907715;163835;0;0
535;7.396190404891968;163835;5;5
536;7.410729169845581;163835;0;0
537;7.42526388168335;163835;0;0
538;7.439707279205322;163835;5;0
539;7.454302072525024;163835;0;5
540;7.468771696090698;163835;5;0
541;7.483247518539429;163835;5;5
542;7.497767210006714;163835;5;0
543;7.512396812438965;163835;0;0
544;7.526852607727051;163835;0;0
545;7.541466951370239;163835;5;5
546;7.556023836135864;163835;0;5
547;7.5705225467681885;163835;-5;0
548;7.585229158401489;163835;0;0
549;7.599694728851318;163835;10;0
550;7.6141533851623535;163835;5;0
551;7.628589153289795;163835;0;0
552;7.643192768096924;163835;5;0
553;7.657696485519409;163835;0;0
554;7.67237114906311;163835;0;0
555;7.686818838119507;163835;0;0
556;7.7013444900512695;163835;5;0
557;7.715864181518555;163835;-5;0
558;7.730398893356323;163835;0;0
559;7.74489951133728;163835;5;0
560;7.759450197219849;163835;0;5
561;7.7738800048828125;163835;5;0
562;7.788271427154541;163835;5;0
563;7.802814245223999;163835;0;0
564;7.8173418045043945;163835;0;0
565;7.831888675689697;163835;5;0
566;7.846283197402954;163835;5;0
567;7.860850811004639;163835;0;-5
568;7.875594615936279;163835;0;0
569;7.890099287033081;163835;0;0
570;7.904611110687256;163835;5;0
571;7.9190545082092285;163835;0;0
572;7.933555364608765;163835;0;0
573;7.947952032089233;163835;5;0
574;7.962646722793579;163835;10;0
575;7.977208137512207;163835;5;0
576;7.991580009460449;163835;5;0
577;8.006105899810791;163835;0;0
578;8.020633220672607;163835;5;0
579;8.03520917892456;163835;5;5
580;8.049681663513184;163835;0;0
581;8.064265489578247;163835;5;0
582;8.078735113143921;163835;5;0
583;8.093186855316162;163835;0;0
584;8.107652187347412;163835;0;0
585;8.122488021850586;163835;10;-5
586;8.137031555175781;163835;0;0
587;8.151530504226685;163835;0;0
588;8.166085958480835;163835;0;5
589;8.180667877197266;163835;0;0
590;8.195204496383667;163835;5;5
591;8.209632158279419;163835;0;0
592;8.22416377067566;163835;5;5
593;8.238619327545166;163835;0;0
594;8.253175973892212;163835;5;0
595;8.267712593078613;163835;0;0
596;8.285578489303589;163835;0;0
597;8.299998044967651;163835;5;-5
598;8.314435720443726;163835;0;0
