;Time;Thrust;BEM pressure;N2O pressure;N2OWeigth
0;0.0;-12.192910249447323;0.03554639595205367;2.8041193962716777;-0.5378734844135522
1;0.015466690063476562;-13.808079179033939;0.008361014955411639;2.839898750107906;-0.5378734844135522
2;0.029912233352661133;-13.808079179033939;0.044608189617600935;2.839898750107906;-0.5378734844135522
3;0.04415464401245117;-13.808079179033939;0.044608189617600935;2.9154329415399434;-0.5332222894807899
4;0.058417320251464844;-12.192910249447323;0.021953705453732653;2.8001439125120964;-0.5425246793463003
5;0.07271385192871094;-12.192910249447323;0.026484602286506287;2.8438742338674867;-0.5425246793463003
6;0.08714056015014648;-13.808079179033939;0.018933107565216933;2.8438742338674867;-0.5471758742790627
7;0.10139298439025879;-13.808079179033939;0.015912509676701103;2.8438742338674867;-0.5332222894807899
8;0.11582589149475098;-12.192910249447323;0.029505200175022117;2.8438742338674867;-0.5425246793463003
9;0.13017821311950684;-13.808079179033939;0.011381612843927469;2.839898750107906;-0.5378734844135522
10;0.15279436111450195;-15.4232481086201;0.012891911788185384;2.839898750107906;-0.5425246793463003
11;0.16716217994689941;-12.192910249447323;0.029505200175022117;2.8438742338674867;-0.5425246793463003
12;0.18139266967773438;-13.808079179033939;0.0400772927848273;2.839898750107906;-0.5378734844135522
13;0.19569826126098633;-12.192910249447323;0.026484602286506287;2.839898750107906;-0.5425246793463003
14;0.21010708808898926;-12.192910249447323;0.020443406509474737;2.835923266348325;-0.5425246793463003
15;0.2243354320526123;-13.808079179033939;0.009871313899669554;2.835923266348325;-0.5285710945480417
16;0.2386021614074707;-13.808079179033939;0.038566993840569386;2.7921929449929346;-0.5332222894807899
17;0.25287461280822754;-10.577741319861161;0.01742280862095902;2.8518252013866485;-0.5332222894807899
18;0.26717329025268555;-12.192910249447323;0.0400772927848273;2.839898750107906;-0.5332222894807899
19;0.28145480155944824;-13.808079179033939;0.027994901230764202;2.839898750107906;-0.5378734844135522
20;0.29575133323669434;-13.808079179033939;0.020443406509474737;2.839898750107906;-0.5425246793463003
21;0.31006813049316406;-13.808079179033939;0.021953705453732653;2.839898750107906;-0.5378734844135522
22;0.3243594169616699;-13.808079179033939;0.029505200175022117;2.839898750107906;-0.5378734844135522
23;0.3386220932006836;-13.808079179033939;0.018933107565216933;2.835923266348325;-0.5378734844135522
24;0.3528745174407959;-12.192910249447323;0.038566993840569386;2.839898750107906;-0.5378734844135522
25;0.36718320846557617;-12.192910249447323;0.03101549911927992;2.839898750107906;-0.5378734844135522
26;0.3814229965209961;-13.808079179033939;0.044608189617600935;2.839898750107906;-0.5425246793463003
27;0.3957045078277588;-12.192910249447323;0.03554639595205367;2.8438742338674867;-0.5332222894807899
28;0.41003894805908203;-13.808079179033939;0.01742280862095902;2.839898750107906;-0.5332222894807899
29;0.4242825508117676;-12.192910249447323;0.032525798063537836;2.8438742338674867;-0.5285710945480417
30;0.4385380744934082;-12.192910249447323;0.018933107565216933;2.839898750107906;-0.5378734844135522
31;0.45327162742614746;-13.808079179033939;0.03101549911927992;2.835923266348325;-0.5378734844135522
32;0.4675130844116211;-13.808079179033939;0.032525798063537836;2.7882174612333537;-0.5425246793463003
33;0.4817678928375244;-12.192910249447323;0.018933107565216933;2.835923266348325;-0.5378734844135522
34;0.49645352363586426;-12.192910249447323;0.03101549911927992;2.8438742338674867;-0.5471758742790627
35;0.5107650756835938;-12.192910249447323;0.03705669489631147;2.835923266348325;-0.5378734844135522
36;0.5250155925750732;-13.808079179033939;0.0038301181226380043;2.8438742338674867;-0.5378734844135522
37;0.5478858947753906;-12.192910249447323;0.03101549911927992;2.8438742338674867;-0.5332222894807899
38;0.5621614456176758;-12.192910249447323;0.018933107565216933;2.839898750107906;-0.5332222894807899
39;0.5765399932861328;-13.808079179033939;0.029505200175022117;2.839898750107906;-0.5332222894807899
40;0.5908007621765137;-12.192910249447323;0.04611848856185885;2.839898750107906;-0.5378734844135522
41;0.6050653457641602;-12.192910249447323;0.012891911788185384;2.839898750107906;-0.5332222894807899
42;0.6193137168884277;-13.808079179033939;0.015912509676701103;2.835923266348325;-0.5332222894807899
43;0.6336324214935303;-13.808079179033939;0.038566993840569386;2.835923266348325;-0.5378734844135522
44;0.6479949951171875;-15.4232481086201;0.027994901230764202;2.835923266348325;-0.5378734844135522
45;0.6641144752502441;-13.808079179033939;0.047628787506116765;2.839898750107906;-0.5425246793463003
46;0.682858943939209;-12.192910249447323;0.014402210732443188;2.839898750107906;-0.5332222894807899
47;0.7016606330871582;-13.808079179033939;0.03403609700779575;2.835923266348325;-0.5378734844135522
48;0.7204198837280273;-13.808079179033939;0.015912509676701103;2.839898750107906;-0.5378734844135522
49;0.7391762733459473;-12.192910249447323;0.0023198191783800892;2.839898750107906;-0.5378734844135522
50;0.7578637599945068;-13.808079179033939;0.023464004397990568;2.835923266348325;-0.5332222894807899
51;0.7765982151031494;-12.192910249447323;0.0053404170668959194;2.8200213313100013;-0.5332222894807899
52;0.7952315807342529;-13.808079179033939;0.027994901230764202;2.8478497176270676;-0.5425246793463003
53;0.814007043838501;-13.808079179033939;0.008361014955411639;2.835923266348325;-0.5471758742790627
54;0.8326296806335449;-13.808079179033939;0.029505200175022117;2.839898750107906;-0.5378734844135522
55;0.8514530658721924;-13.808079179033939;0.012891911788185384;2.835923266348325;-0.5378734844135522
56;0.8704075813293457;-13.808079179033939;0.020443406509474737;2.8438742338674867;-0.5378734844135522
57;0.889275074005127;-13.808079179033939;0.029505200175022117;2.927359392818686;-0.5378734844135522
58;0.9079344272613525;-12.192910249447323;0.03101549911927992;2.8438742338674867;-0.5378734844135522
59;0.9267549514770508;-12.192910249447323;0.04309789067334302;2.8438742338674867;-0.5425246793463003
60;0.9453513622283936;-13.808079179033939;0.03705669489631147;2.8438742338674867;-0.5378734844135522
61;0.9645528793334961;-12.192910249447323;0.03403609700779575;2.839898750107906;-0.5332222894807899
62;0.983267068862915;-13.808079179033939;0.041587591729085216;2.835923266348325;-0.5332222894807899
63;1.0020337104797363;-13.808079179033939;0.7393457039762288;4.449969672738177;-0.8029915955805365
64;1.0742406845092773;-13.808079179033939;0.4070799362394937;3.7502845310519355;-0.6913629171944393
65;1.0885381698608398;-13.808079179033939;0.2847457217546049;3.4640497003621094;-0.6495021627996493
66;1.102909803390503;-13.808079179033939;0.22735436187280522;3.29310389870013;-0.621594993203118
67;1.117295265197754;-12.192910249447323;0.19261748615487384;3.209618739748931;-0.6029902134721112
68;1.131469964981079;-13.808079179033939;0.14730851782713728;3.1499864833552174;-0.5890366286738384
69;1.1459505558013916;-13.808079179033939;0.13522612627307418;3.138060032076474;-0.5890366286738384
70;1.1602818965911865;-12.192910249447323;0.150329115715653;3.1340845483168933;-0.6029902134721112
71;1.174548625946045;-13.808079179033939;0.12465403366326888;3.1221580970381506;-0.6122926033376217
72;1.1889431476593018;-13.808079179033939;0.1744938988237792;3.1221580970381506;-0.6169437982703698
73;1.2032146453857422;-13.808079179033939;0.17902479565655283;3.1301090645573124;-0.6308973830686284
74;1.217477560043335;-13.808079179033939;0.1986586819319054;3.0426484218465326;-0.6355485780013908
75;1.2318229675292969;-13.808079179033939;0.22735436187280522;3.0426484218465326;-0.6262461881358803
76;1.2461316585540771;-13.808079179033939;0.29078691753163644;2.9591632628953333;-0.6169437982703698
77;1.260416030883789;-13.808079179033939;0.3617709679117571;2.975065197933657;-0.621594993203118
78;1.2746686935424805;-13.808079179033939;0.45843010034426185;2.9512122953761715;-0.6169437982703698
79;1.2889792919158936;-12.192910249447323;0.5248832538916088;2.935310360337848;-0.5983390185393489
80;1.3032307624816895;-13.808079179033939;0.6260732831568873;2.8478497176270676;-0.5750830438755798
81;1.3176794052124023;-12.192910249447323;0.7000779314255237;2.8478497176270676;-0.5657806540100694
82;1.331908941268921;-12.192910249447323;0.8677211142381491;2.8120703637908395;-0.5750830438755798
83;1.3547744750976562;-13.808079179033939;0.9145403815101436;2.7444871398779638;-0.5890366286738384
84;1.3690390586853027;-12.192910249447323;1.0217716065524536;2.831947782588744;-0.5936878236066008
85;1.3833653926849365;-13.808079179033939;1.0882247600998005;2.736536172358802;-0.5983390185393489
86;1.3976593017578125;-13.808079179033939;1.1788426967552739;2.672928432205507;-0.5843854337410903
87;1.4119746685028076;-13.808079179033939;1.2301928608600419;2.7166587535608975;-0.5797342388083422
88;1.4264261722564697;-13.808079179033939;1.3026872101844202;2.633173594609698;-0.5797342388083422
89;1.4407117366790771;-13.808079179033939;1.3555476732334464;2.6212471433309554;-0.5797342388083422
90;1.455425500869751;-13.808079179033939;1.4129390331152463;2.7087077860417357;-0.5843854337410903
91;1.4696800708770752;-12.192910249447323;1.4793921866625932;2.5695658544564033;-0.5890366286738384
92;1.4838788509368896;-10.577741319861161;1.5247011549903298;2.6093206920522127;-0.5843854337410903
93;1.4982802867889404;-13.808079179033939;1.5790719169836136;2.50993359806269;-0.5843854337410903
94;1.512605905532837;-15.4232481086201;1.6319323800326395;2.5178845655818516;-0.5797342388083422
95;1.5269443988800049;-13.808079179033939;1.6470353694752187;2.5616148869372415;-0.5843854337410903
96;1.5412838459014893;-13.808079179033939;1.7029164304127602;2.505958114303109;-0.5890366286738384
97;1.5556485652923584;-12.192910249447323;1.7180194198553393;2.498007146783947;-0.5983390185393489
98;1.5700082778930664;-10.577741319861161;1.7482253987404968;2.4900561792647853;-0.5936878236066008
99;1.5842697620391846;-12.192910249447323;1.7829622744584284;2.2117723160941214;-0.5378734844135522
100;1.603870153427124;-13.808079179033939;1.7467150997962388;2.303208442564482;-0.5239198996152936
101;1.6183438301086426;-13.808079179033939;1.787493171291202;2.2157477998537023;-0.5285710945480417
102;1.6326954364776611;-13.808079179033939;1.8056167586222966;2.1998458648153782;-0.5425246793463003
103;1.6470417976379395;-12.192910249447323;1.8222300470091333;2.2117723160941214;-0.5518270692118108
104;1.6613123416900635;-12.192910249447323;1.83884333539597;2.2077968323345405;-0.5657806540100694
105;1.6756281852722168;-15.4232481086201;1.853946324838549;2.2117723160941214;-0.5611294590773213
106;1.6900417804718018;-13.808079179033939;1.8599875206155807;2.124311673383341;-0.5471758742790627
107;1.7042953968048096;-13.808079179033939;1.866028716392612;2.124311673383341;-0.5425246793463003
108;1.7186229228973389;-13.808079179033939;1.882642004779449;2.1521400597004074;-0.5564782641445731
109;1.7328815460205078;-13.808079179033939;1.9007655921105435;2.1203361896237602;-0.5518270692118108
110;1.7558996677398682;-13.808079179033939;1.8901934995007381;2.0527529657108845;-0.5471758742790627
111;1.7719593048095703;-15.4232481086201;1.8705596132253857;2.1203361896237602;-0.5332222894807899
112;1.7907567024230957;-12.192910249447323;1.8977449942220277;2.0925078033066935;-0.5285710945480417
113;1.8095192909240723;-15.4232481086201;1.8977449942220277;2.03287554691298;-0.5425246793463003
114;1.8282976150512695;-13.808079179033939;1.8962346952777698;2.03287554691298;-0.5564782641445731
115;1.8470861911773682;-13.808079179033939;1.882642004779449;2.028900063153399;-0.5564782641445731
116;1.8658697605133057;-12.192910249447323;1.8796214068909332;2.0169736118746564;-0.5564782641445731
117;1.8846328258514404;-13.808079179033939;1.8766008090024173;2.0090226443554946;-0.5471758742790627
118;1.9033374786376953;-12.192910249447323;1.893214097389254;1.9414394204426189;-0.5378734844135522
119;1.922170877456665;-13.808079179033939;1.8720699121696436;1.937463936683038;-0.5378734844135522
120;1.9409666061401367;-13.808079179033939;1.853946324838549;1.9414394204426189;-0.5471758742790627
121;1.959831953048706;-12.192910249447323;1.8509257269500332;1.9414394204426189;-0.5518270692118108
122;1.978529453277588;-13.808079179033939;1.8312918406746808;1.9414394204426189;-0.5657806540100694
123;1.997349739074707;-13.808079179033939;1.8328021396189387;1.8698807127701624;-0.5704318489428317
124;2.0161311626434326;-13.808079179033939;1.826760943841907;1.8539787777318386;-0.5750830438755798
125;2.034881591796875;-13.808079179033939;1.8222300470091333;1.8539787777318386;-0.5611294590773213
126;2.0538182258605957;-13.808079179033939;1.7739004807928809;1.8539787777318386;-0.5611294590773213
127;2.072558641433716;-13.808079179033939;1.8071270575665546;1.8539787777318386;-0.5657806540100694
128;2.0914230346679688;-13.808079179033939;1.7572871924060443;1.8539787777318386;-0.5611294590773213
129;2.110165596008301;-13.808079179033939;1.7678592850158492;1.8500032939722577;-0.5657806540100694
130;2.128793954849243;-13.808079179033939;1.7361430071864339;1.7585671675018968;-0.5704318489428317
131;2.1475706100463867;-13.808079179033939;1.7497356976847547;1.8539787777318386;-0.5750830438755798
132;2.166386127471924;-12.192910249447323;1.734632708242176;1.7983220050977058;-0.5843854337410903
133;2.1850664615631104;-12.192910249447323;1.734632708242176;1.7307387811848303;-0.5657806540100694
134;2.2038209438323975;-13.808079179033939;1.7225503166881126;1.7625426512614777;-0.5564782641445731
135;2.2224743366241455;-13.808079179033939;1.695364935691471;1.7625426512614777;-0.5425246793463003
136;2.2412147521972656;-12.192910249447323;1.6863031420259236;1.6711065247911165;-0.5564782641445731
137;2.259982109069824;-13.808079179033939;1.678751647304634;1.7068858786273449;-0.5518270692118108
138;2.2818965911865234;-12.192910249447323;1.6651589568063132;1.7585671675018968;-0.5750830438755798
139;2.30068302154541;-13.808079179033939;1.627401483199866;1.7625426512614777;-0.5657806540100694
140;2.3194096088409424;-13.808079179033939;1.642504472642445;1.7625426512614777;-0.5611294590773213
141;2.3380088806152344;-13.808079179033939;1.6304220810883816;1.6750820085506974;-0.5518270692118108
142;2.3567845821380615;-12.192910249447323;1.6092778958687712;1.702910394867764;-0.5471758742790627
143;2.3753459453582764;-13.808079179033939;1.6032367000917398;1.738689748703992;-0.5518270692118108
144;2.3941664695739746;-15.4232481086201;1.6032367000917398;1.6711065247911165;-0.5564782641445731
145;2.4128828048706055;-13.808079179033939;1.6017264011474819;1.6830329760698592;-0.5518270692118108
146;2.4316022396087646;-12.192910249447323;1.5881337106491609;1.6711065247911165;-0.5611294590773213
147;2.4503347873687744;-12.192910249447323;1.5700101233180663;1.6711065247911165;-0.5750830438755798
148;2.469616174697876;-13.808079179033939;1.5579277317640032;1.6750820085506974;-0.5750830438755798
149;2.4882025718688965;-12.192910249447323;1.5231908560460719;1.6750820085506974;-0.5797342388083422
150;2.506967067718506;-13.808079179033939;1.535273247600135;1.5796703983207554;-0.5518270692118108
151;2.5256755352020264;-13.808079179033939;1.5141290623805244;1.5796703983207554;-0.5425246793463003
152;2.555771827697754;-12.192910249447323;1.5156393613247823;1.5240136256866226;-0.5425246793463003
153;2.5730042457580566;-13.808079179033939;1.494495176105172;1.5836458820803363;-0.5704318489428317
154;2.5873377323150635;-13.808079179033939;1.4869436813838826;1.4961852393695563;-0.5657806540100694
155;2.6016013622283936;-13.808079179033939;1.4960054750494298;1.4325774992162617;-0.5564782641445731
156;2.615886926651001;-12.192910249447323;1.4642891972200143;1.456430401773747;-0.5611294590773213
157;2.6302027702331543;-13.808079179033939;1.4718406919413036;1.4961852393695563;-0.5518270692118108
158;2.644456386566162;-13.808079179033939;1.4582480014429828;1.5756949145611745;-0.5564782641445731
159;2.658797025680542;-13.808079179033939;1.4235111257250512;1.4961852393695563;-0.5611294590773213
160;2.6730563640594482;-12.192910249447323;1.4476759088331774;1.5399155607249464;-0.5564782641445731
161;2.687394857406616;-12.192910249447323;1.4340832183348566;1.504136206888718;-0.5564782641445731
162;2.7016475200653076;-13.808079179033939;1.428042022557825;1.4961852393695563;-0.5564782641445731
163;2.7159969806671143;-12.192910249447323;1.4189802288922777;1.4922097556099754;-0.5518270692118108
164;2.730332851409912;-13.808079179033939;1.4053875383939567;1.4484794342545853;-0.5704318489428317
165;2.744603157043457;-13.808079179033939;1.3782021573973147;1.408724596658776;-0.5704318489428317
166;2.7590067386627197;-13.808079179033939;1.3706506626760253;1.4047491128991951;-0.5797342388083422
167;2.773277521133423;-13.808079179033939;1.3812227552858305;1.4047491128991951;-0.5797342388083422
168;2.787569999694824;-12.192910249447323;1.3797124563415726;1.4445039504950044;-0.5750830438755798
169;2.801881790161133;-13.808079179033939;1.3766918584530567;1.4047491128991951;-0.5657806540100694
170;2.816228151321411;-13.808079179033939;1.3751815595087988;1.408724596658776;-0.5657806540100694
171;2.8305139541625977;-13.808079179033939;1.3238313954040308;1.408724596658776;-0.5564782641445731
172;2.844792366027832;-12.192910249447323;1.3389343848466098;1.408724596658776;-0.5611294590773213
173;2.8591549396514893;-13.808079179033939;1.3132593027942256;1.321263953947996;-0.5564782641445731
174;2.873462677001953;-13.808079179033939;1.3177901996269994;1.3133129864288342;-0.5657806540100694
175;2.8877692222595215;-13.808079179033939;1.3404446837908677;1.3133129864288342;-0.5657806540100694
176;2.902056932449341;-13.808079179033939;1.3132593027942256;1.408724596658776;-0.5750830438755798
177;2.9164345264434814;-13.808079179033939;1.295135715463131;1.3649942753033861;-0.5843854337410903
178;2.930727005004883;-13.808079179033939;1.3102387049057098;1.317288470188415;-0.5843854337410903
179;2.952974557876587;-12.192910249447323;1.2603988397451995;1.321263953947996;-0.5704318489428317
180;2.967376947402954;-13.808079179033939;1.2830533239090678;1.321263953947996;-0.5518270692118108
181;2.9816694259643555;-12.192910249447323;1.269460633410747;1.4047491128991951;-0.5471758742790627
182;2.9959890842437744;-13.808079179033939;1.2906048186303574;1.3928226616204524;-0.5564782641445731
183;3.010302782058716;-12.192910249447323;1.2739915302435205;1.317288470188415;-0.5564782641445731
184;3.0245003700256348;-13.808079179033939;1.2724812312992628;1.221876859958473;-0.5657806540100694
185;3.0388100147247314;-13.808079179033939;1.269460633410747;1.225852343718054;-0.5657806540100694
186;3.0530614852905273;-13.808079179033939;1.240764953469847;1.317288470188415;-0.5657806540100694
187;3.0674221515655518;-13.808079179033939;1.2377443555813312;1.317288470188415;-0.5611294590773213
188;3.081646680831909;-12.192910249447323;1.2332134587485575;1.325239437707577;-0.5564782641445731
189;3.095982551574707;-13.808079179033939;1.2241516650830104;1.225852343718054;-0.5657806540100694
190;3.1102709770202637;-13.808079179033939;1.227172262971526;1.225852343718054;-0.5611294590773213
191;3.1244585514068604;-13.808079179033939;1.2166001703617209;1.2656071813138632;-0.5564782641445731
192;3.1387152671813965;-13.808079179033939;1.187904490420821;1.3133129864288342;-0.5611294590773213
193;3.152979850769043;-12.192910249447323;1.1894147893650788;1.225852343718054;-0.5564782641445731
194;3.1673104763031006;-12.192910249447323;1.1894147893650788;1.138391701007274;-0.5518270692118108
195;3.181558847427368;-12.192910249447323;1.1894147893650788;1.2815091163521868;-0.5611294590773213
196;3.1958625316619873;-12.192910249447323;1.1818632946437895;1.2298278274776349;-0.5750830438755798
197;3.2101619243621826;-13.808079179033939;1.1652500062569526;1.138391701007274;-0.5704318489428317
198;3.224414825439453;-13.808079179033939;1.1456161199816002;1.138391701007274;-0.5750830438755798
