;Time;Thrust;BEM pressure;N2O pressure
0;0.0;32767;1;0
1;0.012479782104492188;32767;1;0
2;0.02491927146911621;32767;0;0
3;0.035977840423583984;32767;1;0
4;0.04701972007751465;32767;0;0
5;0.05943918228149414;32767;1;1
6;0.07060074806213379;32767;1;1
7;0.08156538009643555;32767;0;0
8;0.09297394752502441;32767;0;0
9;0.10403776168823242;32767;1;-1
10;0.11506319046020508;32767;0;0
11;0.12607789039611816;32767;0;0
12;0.13709759712219238;32767;0;1
13;0.1481170654296875;32767;0;1
14;0.1592116355895996;32767;1;0
15;0.17029738426208496;32767;0;1
16;0.1813199520111084;32767;1;0
17;0.1923685073852539;32767;0;-1
18;0.20359015464782715;32767;1;0
19;0.2146008014678955;32767;0;1
20;0.2256925106048584;32767;0;0
21;0.23678898811340332;32767;1;0
22;0.2478036880493164;32767;1;1
23;0.25882935523986816;32767;-1;1
24;0.26985883712768555;32767;0;-1
25;0.28087568283081055;32767;1;0
26;0.2918100357055664;32767;0;0
27;0.3030557632446289;32767;0;0
28;0.31409740447998047;32767;1;0
29;0.32512497901916504;32767;0;1
30;0.3361687660217285;32767;0;0
31;0.34719419479370117;32767;1;0
32;0.35823488235473633;32767;1;0
33;0.3693215847015381;32767;0;0
34;0.38040804862976074;32767;1;0
35;0.39144372940063477;32767;0;0
36;0.40253734588623047;32767;1;0
37;0.4135560989379883;32767;0;-1
38;0.4246256351470947;32767;0;1
39;0.43572330474853516;32767;1;1
40;0.4496786594390869;32767;0;1
41;0.4606952667236328;32767;1;1
42;0.4717140197753906;32767;1;0
43;0.48286962509155273;32767;1;0
44;0.4938783645629883;32767;0;1
45;0.5049130916595459;32767;1;0
46;0.5160126686096191;32767;0;0
47;0.5270850658416748;32767;0;0
48;0.5381166934967041;32767;1;0
49;0.5491983890533447;32767;0;1
50;0.5602939128875732;32767;1;0
51;0.5713474750518799;32767;1;1
52;0.5823674201965332;32767;0;1
53;0.5934019088745117;32767;0;1
54;0.604468584060669;32767;0;0
55;0.615563154220581;32767;0;0
56;0.6266696453094482;32767;0;0
57;0.6377224922180176;32767;1;0
58;0.6487629413604736;32767;1;1
59;0.6598117351531982;32767;1;0
60;0.6708693504333496;32767;0;0
61;0.6819009780883789;32767;0;0
62;0.6930794715881348;32767;1;0
63;0.7041552066802979;32767;0;1
64;0.7151458263397217;32767;1;0
65;0.7261343002319336;32767;1;0
66;0.7371630668640137;32767;1;1
67;0.7481656074523926;32767;1;1
68;0.7592651844024658;32767;0;1
69;0.7703638076782227;32767;0;0
70;0.7812995910644531;32767;1;0
71;0.7924020290374756;32767;0;0
72;0.8034806251525879;32767;0;1
73;0.814507246017456;32767;1;1
74;0.8256039619445801;32767;2;0
75;0.8367125988006592;32767;0;0
76;0.8477413654327393;32767;0;0
77;0.8587818145751953;32767;0;1
78;0.8697984218597412;32767;1;0
79;0.8808109760284424;32767;0;0
80;0.8918426036834717;32767;0;0
81;0.9030435085296631;32767;0;1
82;0.914064884185791;32767;1;0
83;0.9250595569610596;32767;1;0
84;0.9360651969909668;32767;1;-1
85;0.9470908641815186;32767;2;0
86;0.9581184387207031;32767;0;0
87;0.9691851139068604;32767;1;1
88;0.9802865982055664;32767;0;0
89;0.9913063049316406;32767;0;0
90;1.0023720264434814;32767;0;1
91;1.0134034156799316;32767;1;0
92;1.024454116821289;32767;0;0
93;1.0355548858642578;32767;0;0
94;1.0466625690460205;32767;0;1
95;1.0577118396759033;32767;0;0
96;1.068732738494873;32767;0;0
97;1.0797712802886963;32767;1;0
98;1.0908451080322266;32767;0;0
99;1.1019012928009033;32767;0;1
100;1.1130921840667725;32767;1;0
101;1.1241588592529297;32767;0;1
102;1.1351861953735352;32767;1;1
103;1.146183967590332;32767;1;1
104;1.1572515964508057;32767;1;1
105;1.1683132648468018;32767;0;0
106;1.179429054260254;32767;1;0
107;1.1905543804168701;32767;0;0
108;1.2016162872314453;32767;1;0
109;1.2127537727355957;32767;1;0
110;1.2238352298736572;32767;0;1
111;1.2357239723205566;32767;1;0
112;1.2503705024719238;32767;1;1
113;1.2649469375610352;32767;0;0
114;1.2794713973999023;32767;1;1
115;1.2940850257873535;32767;0;0
116;1.3087472915649414;32767;0;0
117;1.3235228061676025;32767;1;0
118;1.3381404876708984;32767;1;0
119;1.3526108264923096;32767;0;1
120;1.3671565055847168;32767;1;0
121;1.3817698955535889;32767;1;0
122;1.3964996337890625;32767;1;1
123;1.4111530780792236;32767;1;1
124;1.4257235527038574;32767;1;0
125;1.4402170181274414;32767;0;1
126;1.4548115730285645;32767;1;1
127;1.4693598747253418;32767;0;1
128;1.4839866161346436;32767;1;0
129;1.498628854751587;32767;0;-1
130;1.513376235961914;32767;1;0
131;1.5278749465942383;32767;0;1
132;1.5424044132232666;32767;0;1
133;1.5569980144500732;32767;1;0
134;1.5717415809631348;32767;0;0
135;1.5864558219909668;32767;0;0
136;1.6009933948516846;32767;0;0
137;1.615588903427124;32767;1;0
138;1.6302223205566406;32767;1;0
139;1.6447639465332031;32767;2;0
140;1.6593115329742432;32767;1;1
141;1.6740047931671143;32767;0;0
142;1.6886425018310547;32767;0;0
143;1.7034237384796143;32767;0;0
144;1.7180733680725098;32767;0;0
145;1.7325708866119385;32767;0;0
146;1.7471344470977783;32767;0;1
147;1.761768102645874;32767;0;1
148;1.7766165733337402;32767;0;0
149;1.7912609577178955;32767;0;0
150;1.805854320526123;32767;-1;1
151;1.8203938007354736;32767;1;1
152;1.834895372390747;32767;0;0
153;1.8494408130645752;32767;0;0
154;1.8640894889831543;32767;1;1
155;1.882234811782837;32767;0;0
156;1.896820306777954;32767;1;0
157;1.9114699363708496;32767;0;-1
158;1.9261353015899658;32767;1;0
159;1.940633773803711;32767;1;1
160;1.9552512168884277;32767;0;0
161;1.9697718620300293;32767;1;0
162;1.9842894077301025;32767;0;1
163;1.998856782913208;32767;1;0
164;2.013597249984741;32767;1;0
165;2.0282206535339355;32767;0;0
166;2.0427472591400146;32767;0;1
167;2.0572898387908936;32767;1;0
168;2.0718963146209717;32767;0;1
169;2.086638927459717;32767;1;0
170;2.1012723445892334;32767;0;2
171;2.115818738937378;32767;1;1
172;2.13039231300354;32767;0;0
173;2.144930839538574;32767;0;1
174;2.159480333328247;32767;0;1
175;2.1740927696228027;32767;0;0
176;2.1886394023895264;32767;1;0
177;2.203511953353882;32767;1;0
178;2.2180893421173096;32767;1;0
179;2.232569694519043;32767;0;-1
180;2.247143268585205;32767;1;1
181;2.2617597579956055;32767;0;0
182;2.2765023708343506;32767;0;0
183;2.2909908294677734;32767;0;0
184;2.305633306503296;32767;1;1
185;2.3201398849487305;32767;0;0
186;2.3346312046051025;32767;0;0
187;2.349141836166382;32767;1;0
188;2.363755464553833;32767;0;0
189;2.3783857822418213;32767;1;0
190;2.393031358718872;32767;1;0
191;2.4075639247894287;32767;1;1
192;2.4222092628479004;32767;0;0
193;2.436959743499756;32767;1;1
194;2.4515902996063232;32767;0;0
195;2.4662487506866455;32767;0;0
196;2.4807753562927246;32767;1;0
197;2.4953346252441406;32767;0;0
198;2.5098915100097656;32767;0;0
199;2.5244619846343994;32767;0;1
200;2.5390262603759766;32767;0;1
201;2.5538418292999268;32767;0;1
202;2.568451404571533;32767;0;0
203;2.5830976963043213;32767;1;1
204;2.5976171493530273;32767;1;0
205;2.6123056411743164;32767;0;0
206;2.6269783973693848;32767;0;0
207;2.641709566116333;32767;1;1
208;2.6564512252807617;32767;1;1
209;2.6710026264190674;32767;1;0
210;2.6855952739715576;32767;0;1
211;2.7001137733459473;32767;0;0
212;2.714705228805542;32767;0;0
213;2.7292137145996094;32767;0;1
214;2.7438902854919434;32767;0;0
215;2.7585036754608154;32767;-1;0
216;2.773146152496338;32767;1;1
217;2.787677764892578;32767;1;0
218;2.8022701740264893;32767;1;0
219;2.8168928623199463;32767;1;0
220;2.8316032886505127;32767;1;0
221;2.8464555740356445;32767;0;0
222;2.860929250717163;32767;1;0
223;2.875584840774536;32767;0;0
224;2.890106201171875;32767;1;-1
225;2.904681921005249;32767;0;0
226;2.9192023277282715;32767;0;1
227;2.9339537620544434;32767;0;1
228;2.9485833644866943;32767;1;0
229;2.9633378982543945;32767;1;1
230;2.9778621196746826;32767;1;1
231;2.9924216270446777;32767;2;-1
232;3.007047176361084;32767;0;1
233;3.0216498374938965;32767;0;1
234;3.0362401008605957;32767;0;0
235;3.0507519245147705;32767;0;0
236;3.0652992725372314;32767;1;0
237;3.0798158645629883;32767;1;1
238;3.094390392303467;32767;1;0
239;3.1089468002319336;32767;0;0
240;3.1236572265625;32767;0;0
241;3.138218879699707;32767;1;0
242;3.1527223587036133;32767;1;1
243;3.1672286987304688;32767;1;0
244;3.1817991733551025;32767;0;0
245;3.1965067386627197;32767;1;0
246;3.2110393047332764;32767;1;1
247;3.225653886795044;32767;1;1
248;3.240084409713745;32767;0;1
249;3.2545828819274902;32767;1;1
250;3.269102096557617;32767;0;1
251;3.283719778060913;32767;1;0
252;3.298328161239624;32767;-1;1
253;3.313002824783325;32767;0;0
254;3.3275232315063477;32767;1;0
255;3.341951847076416;32767;1;0
256;3.3567962646484375;32767;1;0
257;3.3714537620544434;32767;0;0
258;3.386118173599243;32767;1;0
259;3.4006288051605225;32767;1;1
260;3.4152843952178955;32767;1;1
261;3.429757833480835;32767;0;-1
262;3.4442412853240967;32767;1;0
263;3.4589338302612305;32767;0;1
264;3.4736483097076416;32767;0;0
265;3.491687536239624;32767;1;1
266;3.5064382553100586;32767;0;1
267;3.520955801010132;32767;1;-1
268;3.535547971725464;32767;1;0
269;3.5499846935272217;32767;1;1
270;3.5645291805267334;32767;1;0
271;3.5790305137634277;32767;0;0
272;3.593701124191284;32767;0;0
273;3.6083357334136963;32767;0;0
274;3.622971296310425;32767;0;0
275;3.6374857425689697;32767;1;1
276;3.652151107788086;32767;1;1
277;3.6668405532836914;32767;0;-1
278;3.681495189666748;32767;1;1
279;3.696148633956909;32767;1;1
280;3.710740089416504;32767;1;0
281;3.7253434658050537;32767;0;0
282;3.739871025085449;32767;0;1
283;3.7544095516204834;32767;1;0
284;3.7689521312713623;32767;1;0
285;3.78366756439209;32767;0;0
286;3.7983031272888184;32767;1;1
287;3.812976360321045;32767;0;0
288;3.827531099319458;32767;1;1
289;3.842169761657715;32767;1;1
290;3.8568708896636963;32767;1;1
291;3.871420383453369;32767;0;1
292;3.8861939907073975;32767;0;1
293;3.900655508041382;32767;1;1
294;3.9155750274658203;32767;1;1
295;3.9301164150238037;32767;0;0
296;3.944653034210205;32767;1;0
297;3.9592185020446777;32767;0;-1
298;3.973902940750122;32767;1;0
299;3.9885356426239014;32767;0;0
300;4.003164052963257;32767;0;1
301;4.017742395401001;32767;1;0
302;4.0323662757873535;32767;1;0
303;4.047064542770386;32767;0;0
304;4.061695098876953;32767;1;0
305;4.076419353485107;32767;1;0
306;4.092342853546143;32767;1;1
307;4.107041358947754;32767;0;1
308;4.121737003326416;32767;1;0
309;4.136486530303955;32767;1;0
310;4.150985956192017;32767;0;0
311;4.165606498718262;32767;0;0
312;4.180134057998657;32767;0;1
313;4.194694519042969;32767;1;0
314;4.209258794784546;32767;0;1
315;4.22392725944519;32767;0;1
316;4.23854398727417;32767;0;0
317;4.253405570983887;32767;1;0
318;4.268060922622681;32767;1;1
319;4.2826783657073975;32767;0;1
320;4.297303915023804;32767;0;1
321;4.311950445175171;32767;1;1
322;4.326689958572388;32767;1;0
323;4.341304302215576;32767;1;0
324;4.3558759689331055;32767;0;0
325;4.370447397232056;32767;2;1
326;4.384894132614136;32767;0;0
327;4.399429559707642;32767;0;0
328;4.4140729904174805;32767;1;0
329;4.428703308105469;32767;1;-1
330;4.443547964096069;32767;0;0
331;4.458164215087891;32767;1;0
332;4.472716808319092;32767;1;1
333;4.487233400344849;32767;1;0
334;4.501752853393555;32767;1;0
335;4.516695261001587;32767;0;1
336;4.531294822692871;32767;1;1
337;4.545839548110962;32767;0;1
338;4.560445785522461;32767;1;1
339;4.574975252151489;32767;1;1
340;4.589509010314941;32767;1;0
341;4.604120492935181;32767;0;0
342;4.618779897689819;32767;1;0
343;4.633546352386475;32767;1;0
344;4.648259878158569;32767;1;1
345;4.662890434265137;32767;1;0
346;4.677437782287598;32767;1;0
347;4.691964149475098;32767;1;1
348;4.706668853759766;32767;1;1
349;4.72141432762146;32767;1;-1
350;4.736095905303955;32767;0;1
351;4.750636339187622;32767;0;0
352;4.765270948410034;32767;0;0
353;4.779820442199707;32767;0;0
354;4.794418811798096;32767;0;0
355;4.808969259262085;32767;1;0
356;4.823723793029785;32767;1;0
357;4.838400363922119;32767;0;0
358;4.853169679641724;32767;0;0
359;4.8677144050598145;32767;0;0
360;4.882345914840698;32767;1;1
361;4.8970043659210205;32767;1;1
362;4.911681890487671;32767;1;0
363;4.926323175430298;32767;-1;1
364;4.940831899642944;32767;1;1
365;4.955645322799683;32767;1;1
366;4.970305919647217;32767;0;1
367;4.984919309616089;32767;0;0
368;4.999449729919434;32767;0;1
369;5.014098167419434;32767;1;0
370;5.028785705566406;32767;1;0
371;5.043689250946045;32767;1;1
372;5.05838680267334;32767;1;0
373;5.0730743408203125;32767;0;1
374;5.08766770362854;32767;1;0
375;5.10589599609375;32767;1;0
376;5.1205713748931885;32767;0;0
377;5.135148048400879;32767;1;1
378;5.14973258972168;32767;0;0
379;5.164346218109131;32767;1;0
380;5.1789326667785645;32767;-1;1
381;5.193718194961548;32767;1;1
382;5.208423614501953;32767;1;0
383;5.223108291625977;32767;1;0
384;5.237670421600342;32767;0;0
385;5.252327919006348;32767;0;2
386;5.267023324966431;32767;1;1
387;5.281703948974609;32767;0;0
388;5.296493768692017;32767;0;0
389;5.3110620975494385;32767;0;1
390;5.325698614120483;32767;0;1
391;5.340286016464233;32767;0;0
392;5.354798316955566;32767;0;1
393;5.369385004043579;32767;1;0
394;5.384063482284546;32767;1;1
395;5.39870285987854;32767;1;1
396;5.413497447967529;32767;1;0
397;5.428154945373535;32767;0;-1
398;5.442729473114014;32767;1;-1
399;5.45729398727417;32767;1;0
400;5.471919536590576;32767;0;0
401;5.48670506477356;32767;1;1
402;5.501300573348999;32767;0;0
403;5.516072034835815;32767;1;1
404;5.530673503875732;32767;1;0
405;5.545291185379028;32767;1;0
406;5.5598464012146;32767;0;-1
407;5.5744829177856445;32767;0;0
408;5.589088439941406;32767;1;0
409;5.603822946548462;32767;0;1
410;5.618519306182861;32767;1;-1
411;5.633342027664185;32767;1;0
412;5.64801549911499;32767;0;0
413;5.662622690200806;32767;1;0
414;5.677257299423218;32767;0;0
415;5.691912889480591;32767;0;1
416;5.706711292266846;32767;1;0
417;5.721376895904541;32767;1;1
418;5.736100435256958;32767;0;0
419;5.750625848770142;32767;1;1
420;5.7653303146362305;32767;0;0
421;5.779942035675049;32767;1;2
422;5.794574499130249;32767;1;0
423;5.809128761291504;32767;1;0
424;5.8238325119018555;32767;1;1
425;5.83850884437561;32767;0;0
426;5.853134393692017;32767;1;0
427;5.867757797241211;32767;0;0
428;5.882375240325928;32767;0;0
429;5.8970677852630615;32767;0;0
430;5.911745309829712;32767;1;0
431;5.926579713821411;32767;1;0
432;5.9412384033203125;32767;1;0
433;5.955816745758057;32767;1;0
434;5.970430374145508;32767;0;1
435;5.985167741775513;32767;1;1
436;5.999768495559692;32767;1;1
437;6.014388799667358;32767;1;0
438;6.029019117355347;32767;1;0
439;6.043785810470581;32767;1;0
440;6.058538436889648;32767;1;1
441;6.073309659957886;32767;-1;0
442;6.087959289550781;32767;1;0
443;6.10255765914917;32767;0;0
444;6.117146253585815;32767;0;1
445;6.131815671920776;32767;-1;1
446;6.14660120010376;32767;0;0
447;6.1613287925720215;32767;0;1
448;6.176001071929932;32767;1;0
449;6.190633773803711;32767;0;0
450;6.205282211303711;32767;1;1
451;6.219866752624512;32767;1;1
452;6.234496116638184;32767;0;0
453;6.249027729034424;32767;1;0
454;6.263854265213013;32767;0;1
455;6.278541564941406;32767;1;0
456;6.293283224105835;32767;0;0
457;6.307839632034302;32767;0;-1
458;6.3224570751190186;32767;2;0
459;6.337084770202637;32767;0;1
460;6.351696252822876;32767;1;0
461;6.36659049987793;32767;1;0
462;6.381275177001953;32767;1;0
463;6.395838499069214;32767;0;0
464;6.410433053970337;32767;0;1
465;6.425083637237549;32767;1;0
466;6.439682245254517;32767;0;1
467;6.4542458057403564;32767;0;0
468;6.468869209289551;32767;0;0
469;6.483625650405884;32767;1;0
470;6.498297214508057;32767;0;0
471;6.5129663944244385;32767;1;0
472;6.52756404876709;32767;0;0
473;6.542187690734863;32767;2;0
474;6.556957006454468;32767;0;0
475;6.571613550186157;32767;1;1
476;6.586264133453369;32767;0;0
477;6.600814580917358;32767;2;0
478;6.615519046783447;32767;1;0
479;6.630221605300903;32767;1;1
480;6.644843101501465;32767;1;0
481;6.659384489059448;32767;1;1
482;6.674046993255615;32767;0;0
483;6.688703536987305;32767;0;0
484;6.703464031219482;32767;0;1
485;6.718124628067017;32767;0;0
486;6.736217975616455;32767;0;0
487;6.750755310058594;32767;1;1
488;6.765343904495239;32767;0;0
489;6.779902219772339;32767;0;0
490;6.794478893280029;32767;0;1
491;6.808983325958252;32767;0;0
492;6.823854923248291;32767;0;1
493;6.8385114669799805;32767;1;0
494;6.853147745132446;32767;1;0
495;6.867711305618286;32767;1;0
496;6.882359981536865;32767;0;1
497;6.897010326385498;32767;0;0
498;6.911654710769653;32767;0;1
499;6.926454305648804;32767;0;0
500;6.941001892089844;32767;1;1
501;6.955772161483765;32767;0;0
502;6.970412969589233;32767;1;0
503;6.985098361968994;32767;0;0
504;6.999693870544434;32767;1;0
