;Time;Thrust;BEM pressure;N2O pressure;N2OWeigth
0;0.0;2.326308;0.013891729689284038;0.0012284244817104967;-14.594163507871784
1;0.015635013580322266;2.6353079999999998;0.004829936023736721;0.0012284244817104967;-14.45543708283516
2;0.030136585235595703;2.6403079999999997;0.006340234967994608;0.0012284244817104967;-14.453003285904693
3;0.04512453079223633;2.638308;0.0018093381352209462;0.0052039082412914245;-14.448135692043758
4;0.05984640121459961;2.637308;0.015402028633541918;0.0012284244817104967;-14.448135692043758
5;0.07456707954406738;2.6403079999999997;0.007850533912252489;0.0052039082412914245;-14.450569488974224
6;0.08919095993041992;2.636308;0.01238143074502615;-0.0027470592778704173;-14.450569488974224
7;0.10398077964782715;2.637308;0.0018093381352209462;0.0012284244817104967;-14.448135692043758
8;0.11868166923522949;2.642308;0.010871131800768263;0.0012284244817104967;-14.453003285904693
9;0.13335251808166504;2.638308;0.01238143074502615;0.0012284244817104967;-14.453003285904693
10;0.14824151992797852;2.638308;0.009360832856510376;0.0052039082412914245;-14.45543708283516
11;0.16313600540161133;2.6393079999999998;0.004829936023736721;0.0012284244817104967;-14.448135692043758
12;0.17807602882385254;2.6393079999999998;0.004829936023736721;0.0052039082412914245;-14.45543708283516
13;0.1931149959564209;2.636308;0.004829936023736721;0.0052039082412914245;-14.45543708283516
14;0.20801162719726562;2.637308;0.015402028633541918;0.0012284244817104967;-14.450569488974224
15;0.22293353080749512;2.636308;0.007850533912252489;0.0012284244817104967;-14.450569488974224
16;0.23798108100891113;2.634308;0.0018093381352209462;0.0012284244817104967;-14.450569488974224
17;0.25296616554260254;2.633308;0.009360832856510376;0.0052039082412914245;-14.45543708283516
18;0.26898694038391113;2.6353079999999998;0.013891729689284038;-0.0027470592778704173;-14.450569488974224
19;0.28465962409973145;2.633308;0.006340234967994608;0.0012284244817104967;-14.45543708283516
20;0.29970836639404297;2.6393079999999998;0.004829936023736721;-0.0027470592778704173;-14.45543708283516
21;0.31494736671447754;2.638308;0.004829936023736721;-0.0027470592778704173;-14.448135692043758
22;0.32992029190063477;2.6353079999999998;0.0033196370794788335;0.0012284244817104967;-14.448135692043758
23;0.34517979621887207;2.636308;0.006340234967994608;0.0012284244817104967;-14.450569488974224
24;0.3602578639984131;2.6353079999999998;0.004829936023736721;-0.0027470592778704173;-14.45543708283516
25;0.37540650367736816;2.637308;0.0033196370794788335;0.0012284244817104967;-14.453003285904693
26;0.39050865173339844;2.638308;0.009360832856510376;0.0012284244817104967;-14.448135692043758
27;0.40558338165283203;2.6353079999999998;0.0033196370794788335;0.0012284244817104967;-14.450569488974224
28;0.4207789897918701;2.6353079999999998;0.004829936023736721;0.0012284244817104967;-14.450569488974224
29;0.4359169006347656;2.6353079999999998;0.0018093381352209462;0.0012284244817104967;-14.448135692043758
30;0.4512476921081543;2.636308;0.006340234967994608;-0.0027470592778704173;-14.453003285904693
31;0.4664585590362549;2.638308;0.006340234967994608;0.0012284244817104967;-14.448135692043758
32;0.4816305637359619;2.637308;0.006340234967994608;-0.006722543037451331;-14.453003285904693
33;0.49682021141052246;2.636308;0.0033196370794788335;0.0012284244817104967;-14.450569488974224
34;0.5121080875396729;2.634308;0.006340234967994608;0.0012284244817104967;-14.453003285904693
35;0.5273928642272949;2.6353079999999998;0.010871131800768263;0.0052039082412914245;-14.450569488974224
36;0.5426747798919678;2.634308;0.016912327577799806;-0.0027470592778704173;-14.448135692043758
37;0.5579755306243896;2.637308;0.006340234967994608;0.0012284244817104967;-14.457870879765627
38;0.5732672214508057;2.637308;0.01238143074502615;0.0012284244817104967;-14.45543708283516
39;0.5886571407318115;2.637308;0.004829936023736721;0.0012284244817104967;-14.460304676696094
40;0.6040439605712891;2.636308;0.006340234967994608;0.0012284244817104967;-14.450569488974224
41;0.6257095336914062;2.613308;0.01238143074502615;0.0012284244817104967;-14.484642646000765
42;0.6412522792816162;2.632308;0.009360832856510376;0.0012284244817104967;-14.453003285904693
43;0.656691312789917;2.634308;0.0033196370794788335;0.0012284244817104967;-14.450569488974224
44;0.672119140625;2.6353079999999998;0.007850533912252489;0.0052039082412914245;-14.453003285904693
45;0.687471866607666;2.637308;0.004829936023736721;0.0012284244817104967;-14.457870879765627
46;0.7028367519378662;2.638308;0.0033196370794788335;0.0012284244817104967;-14.450569488974224
47;0.7182815074920654;2.634308;0.0033196370794788335;0.0052039082412914245;-14.450569488974224
48;0.7338273525238037;2.6353079999999998;0.006340234967994608;0.0012284244817104967;-14.450569488974224
49;0.7492661476135254;2.633308;0.004829936023736721;0.009179392000872338;-14.457870879765627
50;0.7650041580200195;2.633308;0.0033196370794788335;0.0012284244817104967;-14.45543708283516
51;0.7805178165435791;2.634308;0.009360832856510376;0.0012284244817104967;-14.450569488974224
52;0.7959847450256348;2.633308;0.0018093381352209462;0.0012284244817104967;-14.450569488974224
53;0.8115873336791992;2.632308;0.004829936023736721;0.0052039082412914245;-14.45543708283516
54;0.8272061347961426;2.636308;0.004829936023736721;-0.0027470592778704173;-14.453003285904693
55;0.8428211212158203;2.6353079999999998;0.0033196370794788335;0.0012284244817104967;-14.453003285904693
56;0.858447790145874;2.6353079999999998;0.007850533912252489;0.0012284244817104967;-14.453003285904693
57;0.8740088939666748;2.6353079999999998;0.009360832856510376;0.0052039082412914245;-14.45543708283516
58;0.88958740234375;2.633308;0.004829936023736721;-0.0027470592778704173;-14.450569488974224
59;0.9052581787109375;2.634308;0.009360832856510376;0.0012284244817104967;-14.457870879765627
60;0.9209740161895752;2.633308;0.010871131800768263;0.0052039082412914245;-14.457870879765627
61;0.9366631507873535;2.633308;0.006340234967994608;0.0012284244817104967;-14.457870879765627
62;0.95241379737854;2.633308;0.0033196370794788335;0.0012284244817104967;-14.45543708283516
63;0.9680695533752441;2.636308;0.018422626522057693;0.0052039082412914245;-14.460304676696094
64;0.9838683605194092;2.633308;0.015402028633541918;-0.0027470592778704173;-14.453003285904693
65;0.9995243549346924;2.633308;0.009360832856510376;0.0012284244817104967;-14.460304676696094
66;1.0153751373291016;2.552308;0.0018093381352209462;0.8837858191086738;-14.883785342597369
67;1.0717873573303223;2.476308;0.4337548361929765;0.9553445267811304;-14.560090350845245
68;1.0879473686218262;2.594308;0.28121464282292996;0.6094774396975906;-14.4895102398617
69;1.1034770011901855;2.608308;0.22835417977390393;0.4703355081122585;-14.470039864417963
70;1.1190979480743408;2.6193079999999997;0.16945252094784635;0.3908258329206402;-14.470039864417963
71;1.134913444519043;2.626308;0.15585983044952537;0.3669729303631547;-14.460304676696094
72;1.1507294178009033;2.629308;0.1528392325610096;0.3590219628439929;-14.45543708283516
73;1.1664013862609863;2.6313079999999998;0.16643192305933058;0.355046479084412;-14.453003285904693
74;1.1822221279144287;2.632308;0.14377743889546227;0.3669729303631547;-14.453003285904693
75;1.1979179382324219;2.6313079999999998;0.15585983044952537;0.37094841412273566;-14.45543708283516
76;1.2138407230377197;2.6353079999999998;0.15888042833804114;0.3908258329206402;-14.453003285904693
77;1.2298407554626465;2.633308;0.16794222200358846;0.39877680043980207;-14.450569488974224
78;1.2458651065826416;2.632308;0.17398341778062;0.4266051867568685;-14.448135692043758
79;1.2625210285186768;2.632308;0.17700401566913576;0.4425071217951921;-14.440834301252357
80;1.2784509658813477;2.6353079999999998;0.2056996956100356;0.4743109918718395;-14.445701895113292
81;1.2943105697631836;2.6353079999999998;0.2072099945542935;0.4902129269101631;-14.440834301252357
82;1.3101963996887207;2.637308;0.22835417977390393;0.5100903457080678;-14.440834301252357
83;1.3260283470153809;2.638308;0.2313747776624197;0.5339432482655533;-14.448135692043758
84;1.342142105102539;2.638308;0.254029261826288;0.5617716345826197;-14.435966707391422
85;1.35798978805542;2.642308;0.26007045760331954;0.5896000208996861;-14.440834301252357
86;1.3739228248596191;2.636308;0.24496746816074066;0.6055019559380097;-14.43840050432189
87;1.3897995948791504;2.6403079999999997;0.2313747776624197;0.6174284072167525;-14.435966707391422
88;1.4058635234832764;2.638308;0.26913225126886686;0.6293548584954952;-14.43840050432189
89;1.4219563007354736;2.6403079999999997;0.2661116533803511;0.6492322772933998;-14.440834301252357
90;1.43796706199646;2.636308;0.26913225126886686;0.6452567935338189;-14.43840050432189
91;1.4540679454803467;2.6403079999999997;0.2781940449344142;0.6333303422550761;-14.440834301252357
92;1.4700934886932373;2.638308;0.2857455396557036;0.6253793747359143;-14.440834301252357
93;1.4861745834350586;2.637308;0.2857455396557036;0.6055019559380097;-14.443268098182823
94;1.5022764205932617;2.638308;0.24496746816074066;0.5776735696209433;-14.445701895113292
95;1.5183961391448975;2.636308;0.22231298399687238;0.5259922807463914;-14.445701895113292
96;1.534632921218872;2.6393079999999998;0.19361730405597252;0.4703355081122585;-14.443268098182823
97;1.5508177280426025;2.637308;0.18002461355765154;0.40275228419938297;-14.450569488974224
98;1.566974401473999;2.6353079999999998;0.17549371672487787;0.3908258329206402;-14.443268098182823
99;1.583092212677002;2.6353079999999998;0.14528773783972015;0.2914387389311173;-14.435966707391422
100;1.604945182800293;2.6473079999999998;0.007850533912252489;0.013154875760453252;-14.440834301252357
101;1.6242268085479736;2.6393079999999998;0.0018093381352209462;0.009179392000872338;-14.426231519669555
102;1.6404924392700195;2.6523079999999997;0.009360832856510376;0.013154875760453252;-14.41406253501722
103;1.6566274166107178;2.654308;0.006340234967994608;0.10856648599039521;-14.277769906911061
104;1.6728694438934326;2.697308;0.0002990391909630588;0.013154875760453252;-14.382423174921147
105;1.6890742778778076;2.6603079999999997;0.01238143074502615;0.0052039082412914245;-14.423797722739089
106;1.7054369449615479;2.650308;0.006340234967994608;0.0052039082412914245;-14.435966707391422
107;1.7216238975524902;2.6433079999999998;0.0002990391909630588;0.0052039082412914245;-14.428665316600021
108;1.737912654876709;2.6473079999999998;0.004829936023736721;0.0012284244817104967;-14.433532910460956
109;1.754246473312378;2.642308;0.004829936023736721;-0.0027470592778704173;-14.445701895113292
110;1.770508050918579;2.637308;0.0033196370794788335;0.0012284244817104967;-14.450569488974224
111;1.7867729663848877;2.636308;0.004829936023736721;-0.0027470592778704173;-14.450569488974224
112;1.8031258583068848;2.6353079999999998;0.0033196370794788335;-0.0027470592778704173;-14.45543708283516
113;1.8193893432617188;2.6353079999999998;0.007850533912252489;-0.0027470592778704173;-14.457870879765627
114;1.8359262943267822;2.634308;0.006340234967994608;0.0012284244817104967;-14.45543708283516
115;1.8522882461547852;2.632308;0.0018093381352209462;-0.0027470592778704173;-14.450569488974224
116;1.8687000274658203;2.6313079999999998;0.007850533912252489;0.0012284244817104967;-14.453003285904693
117;1.885145902633667;2.633308;0.010871131800768263;-0.0027470592778704173;-14.457870879765627
118;1.901585578918457;2.633308;0.0033196370794788335;-0.0027470592778704173;-14.45543708283516
119;1.9179184436798096;2.632308;0.0018093381352209462;0.0012284244817104967;-14.460304676696094
120;1.9344282150268555;2.632308;0.009360832856510376;-0.0027470592778704173;-14.45543708283516
121;1.9509398937225342;2.633308;0.015402028633541918;-0.0027470592778704173;-14.45543708283516
122;1.9674336910247803;2.6313079999999998;0.0002990391909630588;-0.0027470592778704173;-14.460304676696094
123;1.983903408050537;2.633308;0.0033196370794788335;-0.006722543037451331;-14.453003285904693
124;2.000460386276245;2.632308;0.006340234967994608;-0.0027470592778704173;-14.460304676696094
125;2.016888380050659;2.629308;0.0033196370794788335;0.0052039082412914245;-14.477341255209364
126;2.0373239517211914;2.616308;0.0018093381352209462;-0.0027470592778704173;-14.482208849070297
127;2.059424877166748;2.6153079999999997;0.004829936023736721;-0.0027470592778704173;-14.487076442931233
128;2.081594467163086;2.614308;0.006340234967994608;-0.006722543037451331;-14.482208849070297
129;2.103537082672119;2.614308;0.004829936023736721;0.0012284244817104967;-14.518715803027305
130;2.13346791267395;2.600308;0.0002990391909630588;-0.0027470592778704173;-14.47247366134843
131;2.150160551071167;2.630308;0.0002990391909630588;0.0012284244817104967;-14.460304676696094
132;2.166844367980957;2.629308;0.0002990391909630588;0.0012284244817104967;-14.460304676696094
133;2.183436393737793;2.630308;0.0018093381352209462;-0.0027470592778704173;-14.457870879765627
134;2.2001380920410156;2.6313079999999998;0.0018093381352209462;-0.0027470592778704173;-14.47247366134843
135;2.2187137603759766;2.622308;0.0033196370794788335;-0.0027470592778704173;-14.462738473626562
136;2.2354896068573;2.630308;0.009360832856510376;-0.0027470592778704173;-14.460304676696094
137;2.252408266067505;2.628308;0.0018093381352209462;0.0012284244817104967;-14.457870879765627
138;2.271273136138916;2.622308;0.004829936023736721;-0.0027470592778704173;-14.47247366134843
139;2.2879700660705566;2.630308;0.0018093381352209462;-0.0027470592778704173;-14.460304676696094
140;2.3050179481506348;2.628308;0.004829936023736721;0.0012284244817104967;-14.457870879765627
141;2.322101593017578;2.628308;-0.0012112597532948285;0.0012284244817104967;-14.457870879765627
142;2.3387954235076904;2.630308;0.0033196370794788335;-0.0027470592778704173;-14.462738473626562
143;2.3556642532348633;2.632308;0.010871131800768263;-0.0027470592778704173;-14.465172270557028
144;2.3723130226135254;2.630308;0.0018093381352209462;-0.0027470592778704173;-14.457870879765627
145;2.389002799987793;2.629308;0.0018093381352209462;0.0012284244817104967;-14.462738473626562
146;2.405806541442871;2.633308;0.009360832856510376;0.0012284244817104967;-14.465172270557028
147;2.4225544929504395;2.630308;-0.0012112597532948285;0.0012284244817104967;-14.457870879765627
148;2.4393181800842285;2.629308;0.004829936023736721;-0.0027470592778704173;-14.462738473626562
149;2.456524133682251;2.628308;0.0018093381352209462;-0.0027470592778704173;-14.460304676696094
150;2.4733567237854004;2.629308;0.004829936023736721;0.0012284244817104967;-14.462738473626562
151;2.4904637336730957;2.629308;0.007850533912252489;0.0012284244817104967;-14.467606067487495
152;2.507397413253784;2.618308;0.0033196370794788335;-0.0027470592778704173;-14.467606067487495
153;2.5268032550811768;2.6193079999999997;0.01238143074502615;-0.0027470592778704173;-14.47247366134843
154;2.5462470054626465;2.618308;0.0033196370794788335;-0.0027470592778704173;-14.470039864417963
155;2.5657167434692383;2.618308;0.0018093381352209462;0.0012284244817104967;-14.470039864417963
156;2.5852086544036865;2.6193079999999997;0.009360832856510376;-0.0027470592778704173;-14.474907458278896
157;2.604755163192749;2.6153079999999997;0.0033196370794788335;-0.0027470592778704173;-14.470039864417963
158;2.6241672039031982;2.6153079999999997;0.007850533912252489;0.0012284244817104967;-14.47247366134843
159;2.64365291595459;2.6193079999999997;0.010871131800768263;-0.0027470592778704173;-14.474907458278896
160;2.663172721862793;2.616308;0.004829936023736721;-0.0027470592778704173;-14.470039864417963
161;2.682657241821289;2.6153079999999997;0.009360832856510376;-0.0027470592778704173;-14.474907458278896
162;2.702254056930542;2.618308;0.010871131800768263;0.0052039082412914245;-14.474907458278896
163;2.721888780593872;2.617308;0.01238143074502615;0.0012284244817104967;-14.47247366134843
164;2.7415285110473633;2.617308;0.004829936023736721;-0.0027470592778704173;-14.467606067487495
165;2.76125431060791;2.618308;0.0018093381352209462;-0.0027470592778704173;-14.47247366134843
166;2.7809641361236572;2.616308;0.007850533912252489;0.0012284244817104967;-14.470039864417963
167;2.800701856613159;2.614308;0.0018093381352209462;-0.0027470592778704173;-14.470039864417963
168;2.820469856262207;2.6153079999999997;0.0018093381352209462;-0.0027470592778704173;-14.470039864417963
169;2.840345621109009;2.614308;0.009360832856510376;-0.0027470592778704173;-14.470039864417963
170;2.860227346420288;2.613308;0.0018093381352209462;-0.006722543037451331;-14.47247366134843
171;2.880186080932617;2.617308;0.009360832856510376;-0.0027470592778704173;-14.477341255209364
172;2.9001896381378174;2.6153079999999997;0.004829936023736721;-0.006722543037451331;-14.47977505213983
173;2.9201793670654297;2.613308;-0.0012112597532948285;-0.0027470592778704173;-14.47247366134843
174;2.94022536277771;2.616308;0.006340234967994608;-0.0027470592778704173;-14.482208849070297
175;2.960930109024048;2.612308;0.0033196370794788335;-0.0027470592778704173;-14.470039864417963
176;2.9811158180236816;2.612308;0.0033196370794788335;-0.0027470592778704173;-14.470039864417963
177;3.001403570175171;2.612308;0.007850533912252489;-0.006722543037451331;-14.474907458278896
178;3.021517276763916;2.617308;0.0033196370794788335;-0.0027470592778704173;-14.470039864417963
179;3.0416040420532227;2.614308;0.0018093381352209462;-0.0027470592778704173;-14.477341255209364
180;3.0620439052581787;2.614308;0.0033196370794788335;-0.0027470592778704173;-14.474907458278896
181;3.0822315216064453;2.614308;0.01238143074502615;-0.0027470592778704173;-14.474907458278896
182;3.1024231910705566;2.614308;0.010871131800768263;-0.0027470592778704173;-14.47247366134843
183;3.1225242614746094;2.616308;0.0033196370794788335;-0.0027470592778704173;-14.470039864417963
184;3.1427321434020996;2.6113079999999997;0.0033196370794788335;-0.006722543037451331;-14.474907458278896
185;3.1630587577819824;2.614308;0.0018093381352209462;0.0012284244817104967;-14.477341255209364
186;3.183349609375;2.613308;0.0033196370794788335;-0.0027470592778704173;-14.47977505213983
187;3.2037851810455322;2.605308;0.0002990391909630588;-0.0027470592778704173;-14.484642646000765
188;3.2263031005859375;2.613308;0.0002990391909630588;0.0012284244817104967;-14.477341255209364
189;3.2468366622924805;2.6153079999999997;0.0002990391909630588;-0.0027470592778704173;-14.474907458278896
190;3.2676384449005127;2.612308;0.0018093381352209462;-0.0027470592778704173;-14.47247366134843
191;3.2882490158081055;2.614308;0.0033196370794788335;0.0012284244817104967;-14.477341255209364
192;3.3088572025299072;2.613308;-0.0012112597532948285;-0.0027470592778704173;-14.47977505213983
193;3.329796552658081;2.613308;0.0018093381352209462;-0.0027470592778704173;-14.477341255209364
194;3.3505043983459473;2.6153079999999997;0.004829936023736721;-0.0027470592778704173;-14.474907458278896
195;3.371093273162842;2.613308;0.018422626522057693;0.0012284244817104967;-14.477341255209364
196;3.3917481899261475;2.6153079999999997;0.006340234967994608;-0.0027470592778704173;-14.474907458278896
197;3.412322759628296;2.614308;0.0018093381352209462;-0.0027470592778704173;-14.477341255209364
198;3.4330294132232666;2.614308;0.0018093381352209462;-0.006722543037451331;-14.477341255209364
199;3.453845262527466;2.613308;0.004829936023736721;-0.0027470592778704173;-14.47977505213983
200;3.474709987640381;2.613308;0.0033196370794788335;0.0012284244817104967;-14.484642646000765
201;3.4955968856811523;2.612308;0.004829936023736721;-0.0027470592778704173;-14.477341255209364
202;3.5164034366607666;2.612308;0.009360832856510376;-0.0027470592778704173;-14.47977505213983
203;3.5375542640686035;2.610308;0.0018093381352209462;-0.0027470592778704173;-14.474907458278896
204;3.5587189197540283;2.612308;0.0002990391909630588;-0.0027470592778704173;-14.47977505213983
205;3.579725742340088;2.610308;0.013891729689284038;-0.0027470592778704173;-14.477341255209364
