;Time;Thrust;BEM pressure;N2O pressure;N2OWeigth
0;0.0;0.5558339999999999;-2.902344501778269;-7.76600018627981;-46.824892449702766
1;0.015892982482910156;0.5558339999999999;-2.902344501778269;-7.76600018627981;-46.43305114389756
2;0.030329465866088867;0.5558339999999999;-2.902344501778269;-7.76600018627981;-46.43305114389756
3;0.04464435577392578;0.5558339999999999;-2.902344501778269;-7.76600018627981;-45.646934735356695
4;0.059114933013916016;0.5558339999999999;-2.902344501778269;-7.76600018627981;-45.646934735356695
5;0.07349491119384766;0.5558339999999999;-2.902344501778269;-7.76600018627981;-45.646934735356695
6;0.08790397644042969;0.5558339999999999;-2.902344501778269;-7.76600018627981;-45.646934735356695
7;0.10227823257446289;0.5558339999999999;-2.902344501778269;-7.76600018627981;-46.038776041161896
8;0.1168215274810791;0.5558339999999999;-2.902344501778269;-7.76600018627981;-46.43305114389756
9;0.13116073608398438;0.5558339999999999;-2.902344501778269;-7.76600018627981;-46.43305114389756
10;0.14612483978271484;0.5558339999999999;-2.902344501778269;-7.76600018627981;-46.43305114389756
11;0.16129016876220703;0.5558339999999999;-2.902344501778269;-7.76600018627981;-46.43305114389756
12;0.17576122283935547;0.5558339999999999;-2.902344501778269;-7.76600018627981;-46.43305114389756
13;0.1903533935546875;0.5558339999999999;-2.902344501778269;-7.76600018627981;-46.43305114389756
14;0.20476055145263672;0.5558339999999999;-2.902344501778269;-7.76600018627981;-46.43305114389756
15;0.2192239761352539;0.5558339999999999;-2.902344501778269;-7.76600018627981;-46.038776041161896
16;0.23505115509033203;0.5558339999999999;-2.902344501778269;-7.76600018627981;-46.038776041161896
17;0.24953317642211914;0.5558339999999999;-2.902344501778269;-7.76600018627981;-45.646934735356695
18;0.2641472816467285;0.5558339999999999;-2.902344501778269;-7.76600018627981;-45.646934735356695
19;0.2786424160003662;0.5558339999999999;-2.902344501778269;-7.76600018627981;-45.646934735356695
20;0.2930786609649658;0.5558339999999999;-2.902344501778269;-7.76600018627981;-45.646934735356695
21;0.30754995346069336;0.5558339999999999;-2.902344501778269;-7.76600018627981;-45.25265963262102
22;0.3219330310821533;0.5558339999999999;-2.902344501778269;-7.76600018627981;-44.86081832681582
23;0.3363981246948242;0.5558339999999999;-2.902344501778269;-7.76600018627981;-44.86081832681582
24;0.350771427154541;0.5558339999999999;-2.902344501778269;-7.76600018627981;-44.86081832681582
25;0.36521172523498535;0.5558339999999999;-2.902344501778269;-7.76600018627981;-44.86081832681582
26;0.3796107769012451;0.5558339999999999;-2.902344501778269;-7.76600018627981;-44.86081832681582
27;0.394071102142334;0.5558339999999999;-2.902344501778269;-7.76600018627981;-44.86081832681582
28;0.4085571765899658;0.5558339999999999;-2.902344501778269;-7.76600018627981;-44.86081832681582
29;0.4230003356933594;0.5558339999999999;-2.902344501778269;-7.76600018627981;-44.86081832681582
30;0.43747568130493164;0.5558339999999999;-2.902344501778269;-7.76600018627981;-44.86081832681582
31;0.4519038200378418;0.5558339999999999;-2.902344501778269;-7.76600018627981;-44.86081832681582
32;0.466372013092041;0.5558339999999999;-2.902344501778269;-7.76600018627981;-44.86081832681582
33;0.4809401035308838;0.5558339999999999;-2.902344501778269;-7.76600018627981;-44.86081832681582
34;0.4953434467315674;0.5558339999999999;-2.902344501778269;-7.76600018627981;-44.86081832681582
35;0.5098483562469482;0.5558339999999999;-2.902344501778269;-7.76600018627981;-44.86081832681582
36;0.5242836475372314;0.5558339999999999;-2.902344501778269;-7.76600018627981;-44.86081832681582
37;0.538665771484375;0.5558339999999999;-2.902344501778269;-7.76600018627981;-44.86081832681582
38;0.5532000064849854;0.5558339999999999;-2.902344501778269;-7.76600018627981;-44.86081832681582
39;0.5677223205566406;0.5558339999999999;-2.902344501778269;-7.76600018627981;-44.86081832681582
40;0.5821824073791504;0.5558339999999999;-2.902344501778269;-7.76600018627981;-44.86081832681582
41;0.596726655960083;0.5558339999999999;-2.902344501778269;-7.76600018627981;-44.86081832681582
42;0.6112029552459717;0.5558339999999999;-2.902344501778269;-7.76600018627981;-44.86081832681582
43;0.6257209777832031;0.5558339999999999;-2.902344501778269;-7.76600018627981;-44.86081832681582
44;0.6402812004089355;0.5558339999999999;-2.902344501778269;-7.76600018627981;-44.86081832681582
45;0.6546714305877686;0.5558339999999999;-2.902344501778269;-7.76600018627981;-44.86081832681582
46;0.6731436252593994;0.5558339999999999;-2.902344501778269;-7.76600018627981;-44.86081832681582
47;0.6920628547668457;0.5558339999999999;-2.902344501778269;-7.76600018627981;-44.86081832681582
48;0.7109761238098145;0.5558339999999999;-2.902344501778269;-7.76600018627981;-44.86081832681582
49;0.7304832935333252;0.5558339999999999;-2.902344501778269;-7.76600018627981;-45.646934735356695
50;0.7495465278625488;0.5558339999999999;-2.902344501778269;-7.76600018627981;-45.646934735356695
51;0.7683906555175781;0.5558339999999999;-2.902344501778269;-7.76600018627981;-45.646934735356695
52;0.7873711585998535;0.5558339999999999;-2.902344501778269;-7.76600018627981;-45.646934735356695
53;0.8062303066253662;0.5558339999999999;-2.902344501778269;-7.76600018627981;-45.646934735356695
54;0.8252665996551514;0.5558339999999999;-2.902344501778269;-7.76600018627981;-45.646934735356695
55;0.8442378044128418;0.5558339999999999;-2.902344501778269;-7.76600018627981;-46.038776041161896
56;0.8630328178405762;0.5558339999999999;-2.902344501778269;-7.76600018627981;-46.43305114389756
57;0.881995439529419;0.5558339999999999;-2.902344501778269;-7.76600018627981;-46.43305114389756
58;0.9008383750915527;0.5558339999999999;-2.902344501778269;-7.76600018627981;-46.43305114389756
59;0.9198887348175049;0.5558339999999999;-2.902344501778269;-7.76600018627981;-47.21673375550797
60;0.9387788772583008;0.5558339999999999;-2.902344501778269;-7.76600018627981;-46.43305114389756
61;0.9577782154083252;0.5558339999999999;-2.902344501778269;-7.76600018627981;-46.43305114389756
62;0.9767224788665771;0.5558339999999999;-2.902344501778269;-7.76600018627981;-45.646934735356695
63;0.995673656463623;0.5558339999999999;-2.902344501778269;-7.76600018627981;-45.646934735356695
64;1.0148911476135254;0.5558339999999999;-2.902344501778269;-7.76600018627981;-46.43305114389756
65;1.0844850540161133;0.5558339999999999;-2.902344501778269;-7.76600018627981;-46.43305114389756
66;1.0989179611206055;0.5558339999999999;-2.902344501778269;-7.76600018627981;-46.43305114389756
67;1.1132352352142334;0.5558339999999999;-2.902344501778269;-7.76600018627981;-45.646934735356695
68;1.1278722286224365;0.5558339999999999;-2.902344501778269;-7.76600018627981;-45.646934735356695
69;1.1422417163848877;0.5558339999999999;-2.902344501778269;-7.76600018627981;-45.646934735356695
70;1.1568467617034912;0.5558339999999999;-2.902344501778269;-7.76600018627981;-45.646934735356695
71;1.1711719036102295;0.5558339999999999;-2.902344501778269;-7.76600018627981;-45.25265963262102
72;1.1854982376098633;0.5558339999999999;-2.902344501778269;-7.76600018627981;-44.86081832681582
73;1.199965238571167;0.5558339999999999;-2.902344501778269;-7.76600018627981;-44.86081832681582
74;1.214348554611206;0.5558339999999999;-2.902344501778269;-7.76600018627981;-44.86081832681582
75;1.2287678718566895;0.5558339999999999;-2.902344501778269;-7.76600018627981;-44.86081832681582
76;1.243147850036621;0.5558339999999999;-2.902344501778269;-7.76600018627981;-45.646934735356695
77;1.2576110363006592;0.5558339999999999;-2.902344501778269;-7.76600018627981;-46.43305114389756
78;1.271982192993164;0.5558339999999999;-2.902344501778269;-7.76600018627981;-46.43305114389756
79;1.2864322662353516;0.5558339999999999;-2.902344501778269;-7.76600018627981;-45.646934735356695
80;1.300736665725708;0.5558339999999999;-2.902344501778269;-7.76600018627981;-45.646934735356695
81;1.3151426315307617;0.5558339999999999;-2.902344501778269;-7.76600018627981;-44.86081832681582
82;1.3296210765838623;0.5558339999999999;-2.902344501778269;-7.76600018627981;-44.86081832681582
83;1.3440601825714111;0.5558339999999999;-2.902344501778269;-7.76600018627981;-44.86081832681582
84;1.3584485054016113;0.5558339999999999;-2.902344501778269;-7.76600018627981;-44.86081832681582
85;1.372901439666748;0.5558339999999999;-2.902344501778269;-7.76600018627981;-44.86081832681582
86;1.3934717178344727;0.5558339999999999;-2.902344501778269;-7.76600018627981;-44.86081832681582
87;1.4079480171203613;0.5558339999999999;-2.902344501778269;-7.76600018627981;-45.646934735356695
88;1.4224109649658203;0.5558339999999999;-2.902344501778269;-7.76600018627981;-45.25265963262102
89;1.4369733333587646;0.5558339999999999;-2.902344501778269;-7.76600018627981;-44.86081832681582
90;1.451345443725586;0.5558339999999999;-2.902344501778269;-7.76600018627981;-44.86081832681582
91;1.4657018184661865;0.5558339999999999;-2.902344501778269;-7.76600018627981;-44.86081832681582
92;1.4802138805389404;0.5558339999999999;-2.902344501778269;-7.76600018627981;-44.86081832681582
93;1.4945652484893799;0.5558339999999999;-2.902344501778269;-7.76600018627981;-45.25265963262102
94;1.5090112686157227;0.5558339999999999;-2.902344501778269;-7.76600018627981;-44.86081832681582
95;1.5234036445617676;0.5558339999999999;-2.902344501778269;-7.76600018627981;-44.86081832681582
96;1.5377914905548096;0.5558339999999999;-2.902344501778269;-7.76600018627981;-44.86081832681582
97;1.5521247386932373;0.5558339999999999;-2.902344501778269;-7.76600018627981;-44.86081832681582
98;1.5666351318359375;0.5558339999999999;-2.902344501778269;-7.76600018627981;-45.646934735356695
99;1.5809190273284912;0.5558339999999999;-2.902344501778269;-7.76600018627981;-45.646934735356695
100;1.595346450805664;0.5558339999999999;-2.902344501778269;-7.76600018627981;-45.646934735356695
101;1.609806776046753;0.5558339999999999;-2.902344501778269;-7.76600018627981;-45.646934735356695
102;1.6242108345031738;0.5558339999999999;-2.902344501778269;-7.76600018627981;-45.646934735356695
103;1.6386198997497559;0.5558339999999999;-2.902344501778269;-7.76600018627981;-45.646934735356695
104;1.6530802249908447;0.5558339999999999;-2.902344501778269;-7.76600018627981;-45.646934735356695
105;1.6781275272369385;0.5558339999999999;-2.902344501778269;-7.76600018627981;-46.038776041161896
106;1.6926636695861816;0.5558339999999999;-2.902344501778269;-7.76600018627981;-46.43305114389756
107;1.7070980072021484;0.5558339999999999;-2.902344501778269;-7.76600018627981;-46.43305114389756
108;1.7214820384979248;0.5558339999999999;-2.902344501778269;-7.76600018627981;-46.43305114389756
109;1.7357633113861084;0.5558339999999999;-2.902344501778269;-7.76600018627981;-46.43305114389756
110;1.7504832744598389;0.5558339999999999;-2.902344501778269;-7.76600018627981;-46.43305114389756
111;1.7648494243621826;0.5558339999999999;-2.902344501778269;-7.76600018627981;-47.21673375550797
112;1.7834887504577637;0.5558339999999999;-2.902344501778269;-7.76600018627981;-46.43305114389756
113;1.8023490905761719;0.5558339999999999;-2.902344501778269;-7.76600018627981;-45.646934735356695
114;1.8213143348693848;0.5558339999999999;-2.902344501778269;-7.76600018627981;-45.25265963262102
115;1.8402166366577148;0.5558339999999999;-2.902344501778269;-7.76600018627981;-45.646934735356695
116;1.8591008186340332;0.5558339999999999;-2.902344501778269;-7.76600018627981;-45.646934735356695
117;1.8779139518737793;0.5558339999999999;-2.902344501778269;-7.76600018627981;-45.646934735356695
118;1.89682936668396;0.5558339999999999;-2.902344501778269;-7.76600018627981;-45.646934735356695
119;1.915635585784912;0.5558339999999999;-2.902344501778269;-7.76600018627981;-44.86081832681582
120;1.934513807296753;0.5558339999999999;-2.902344501778269;-7.76600018627981;-44.86081832681582
121;1.9532980918884277;0.5558339999999999;-2.902344501778269;-7.76600018627981;-44.86081832681582
122;1.972269058227539;0.5558339999999999;-2.902344501778269;-7.76600018627981;-45.646934735356695
123;1.9912095069885254;0.5558339999999999;-2.902344501778269;-7.76600018627981;-45.646934735356695
124;2.0101728439331055;0.5558339999999999;-2.902344501778269;-7.76600018627981;-45.646934735356695
125;2.029110908508301;0.5558339999999999;-2.902344501778269;-7.76600018627981;-46.43305114389756
126;2.048006296157837;0.5558339999999999;-2.902344501778269;-7.76600018627981;-46.43305114389756
127;2.066896438598633;0.5558339999999999;-2.902344501778269;-7.76600018627981;-47.21673375550797
128;2.0857136249542236;0.5558339999999999;-2.902344501778269;-7.76600018627981;-47.21673375550797
129;2.104794979095459;0.5558339999999999;-2.902344501778269;-7.76600018627981;-47.21673375550797
130;2.123652219772339;0.5558339999999999;-2.902344501778269;-7.76600018627981;-48.00285016404884
131;2.1424832344055176;0.5558339999999999;-2.902344501778269;-7.76600018627981;-48.00285016404884
132;2.1613895893096924;0.5558339999999999;-2.902344501778269;-7.76600018627981;-48.00285016404884
133;2.180360794067383;0.5558339999999999;-2.902344501778269;-7.76600018627981;-48.00285016404884
134;2.1992452144622803;0.5558339999999999;-2.902344501778269;-7.76600018627981;-48.00285016404884
135;2.2181003093719482;0.5558339999999999;-2.902344501778269;-7.76600018627981;-48.00285016404884
136;2.237090587615967;0.5558339999999999;-2.902344501778269;-7.76600018627981;-47.611008858243636
137;2.256035804748535;0.5558339999999999;-2.902344501778269;-7.76600018627981;-48.00285016404884
138;2.278168201446533;0.5558339999999999;-2.902344501778269;-7.76600018627981;-48.788966572589715
139;2.297051429748535;0.5558339999999999;-2.902344501778269;-7.76600018627981;-48.788966572589715
140;2.3159396648406982;0.5558339999999999;-2.902344501778269;-7.76600018627981;-48.788966572589715
141;2.334843873977661;0.5558339999999999;-2.902344501778269;-7.76600018627981;-48.788966572589715
142;2.3536572456359863;0.5558339999999999;-2.902344501778269;-7.76600018627981;-48.788966572589715
143;2.372542381286621;0.5558339999999999;-2.902344501778269;-7.76600018627981;-48.788966572589715
144;2.3914496898651123;0.5558339999999999;-2.902344501778269;-7.76600018627981;-48.788966572589715
145;2.41029691696167;0.5558339999999999;-2.902344501778269;-7.76600018627981;-48.397125266784506
146;2.429183006286621;0.5558339999999999;-2.902344501778269;-7.76600018627981;-48.00285016404884
147;2.447972536087036;0.5558339999999999;-2.902344501778269;-7.76600018627981;-48.788966572589715
148;2.466841459274292;0.5558339999999999;-2.902344501778269;-7.76600018627981;-49.57508298113058
149;2.485626697540283;0.5558339999999999;-2.902344501778269;-7.76600018627981;-49.57508298113058
150;2.504516839981079;0.5558339999999999;-2.902344501778269;-7.76600018627981;-49.57508298113058
151;2.523336172103882;0.5558339999999999;-2.902344501778269;-7.76600018627981;-50.361199389671455
152;2.542170524597168;0.5558339999999999;-2.902344501778269;-7.76600018627981;-50.753040695476656
153;2.5610597133636475;0.5558339999999999;-2.902344501778269;-7.76600018627981;-51.147315798212325
154;2.5801360607147217;0.5558339999999999;-2.902344501778269;-7.76600018627981;-51.93099840982273
155;2.5990402698516846;0.5558339999999999;-2.902344501778269;-7.76600018627981;-52.7171148183636
156;2.617868423461914;0.5558339999999999;-2.902344501778269;-7.76600018627981;-53.503231226904475
157;2.636784791946411;0.5558339999999999;-2.902344501778269;-7.76600018627981;-54.289347635445345
158;2.6555638313293457;0.5558339999999999;-2.902344501778269;-7.76600018627981;-55.85914665559662
159;2.674452304840088;0.5558339999999999;-2.902344501778269;-7.76600018627981;-56.645263064137495
160;2.6933133602142334;0.5558339999999999;-2.902344501778269;-7.76600018627981;-57.431379472678366
161;2.712369680404663;0.5558339999999999;-2.902344501778269;-7.76600018627981;-57.431379472678366
162;2.731339931488037;0.5558339999999999;-2.902344501778269;-7.76600018627981;-57.82322077848357
163;2.750239133834839;0.5558339999999999;-2.902344501778269;-7.76600018627981;-57.431379472678366
164;2.768991231918335;0.5558339999999999;-2.902344501778269;-7.76600018627981;-57.431379472678366
165;2.7877907752990723;0.5558339999999999;-2.902344501778269;-7.76600018627981;-57.431379472678366
166;2.806640863418579;0.5558339999999999;-2.902344501778269;-7.76600018627981;-57.431379472678366
167;2.8254482746124268;0.5558339999999999;-2.902344501778269;-7.76600018627981;-57.431379472678366
168;2.8443453311920166;0.5558339999999999;-2.902344501778269;-7.76600018627981;-56.645263064137495
169;2.8632194995880127;0.5558339999999999;-2.902344501778269;-7.76600018627981;-56.645263064137495
170;2.8866519927978516;0.5558339999999999;-2.902344501778269;-7.76600018627981;-55.85914665559662
171;2.906569242477417;0.5558339999999999;-2.902344501778269;-7.76600018627981;-55.85914665559662
172;2.925483226776123;0.5558339999999999;-2.902344501778269;-7.76600018627981;-55.85914665559662
173;2.9444305896759033;0.5558339999999999;-2.902344501778269;-7.76600018627981;-55.85914665559662
174;2.9634079933166504;0.5558339999999999;-2.902344501778269;-7.76600018627981;-55.85914665559662
175;2.978590965270996;0.5558339999999999;-2.902344501778269;-7.76600018627981;-55.85914665559662
176;2.9930171966552734;0.5558339999999999;-2.902344501778269;-7.76600018627981;-55.85914665559662
177;3.007472515106201;0.5558339999999999;-2.902344501778269;-7.76600018627981;-55.85914665559662
178;3.0218417644500732;0.5558339999999999;-2.902344501778269;-7.76600018627981;-55.85914665559662
179;3.0362956523895264;0.5558339999999999;-2.902344501778269;-7.76600018627981;-55.85914665559662
180;3.0506591796875;0.5558339999999999;-2.902344501778269;-7.76600018627981;-55.85914665559662
181;3.0650134086608887;0.5558339999999999;-2.902344501778269;-7.76600018627981;-55.85914665559662
182;3.0794713497161865;0.5558339999999999;-2.902344501778269;-7.76600018627981;-55.85914665559662
183;3.093909502029419;0.5558339999999999;-2.902344501778269;-7.76600018627981;-56.645263064137495
184;3.1082887649536133;0.5558339999999999;-2.902344501778269;-7.76600018627981;-56.645263064137495
185;3.1227548122406006;0.5558339999999999;-2.902344501778269;-7.76600018627981;-56.645263064137495
186;3.1371352672576904;0.5558339999999999;-2.902344501778269;-7.76600018627981;-56.645263064137495
187;3.151508331298828;0.5558339999999999;-2.902344501778269;-7.76600018627981;-56.645263064137495
188;3.1659204959869385;0.5558339999999999;-2.902344501778269;-7.76600018627981;-57.431379472678366
189;3.1805386543273926;0.5558339999999999;-2.902344501778269;-7.76600018627981;-57.431379472678366
190;3.1949048042297363;0.5558339999999999;-2.902344501778269;-7.76600018627981;-57.431379472678366
191;3.2093372344970703;0.5558339999999999;-2.902344501778269;-7.76600018627981;-57.82322077848357
192;3.2237792015075684;0.5558339999999999;-2.902344501778269;-7.76600018627981;-58.217495881219236
193;3.2381534576416016;0.5558339999999999;-2.902344501778269;-7.76600018627981;-58.217495881219236
194;3.252483606338501;0.5558339999999999;-2.902344501778269;-7.76600018627981;-58.217495881219236
195;3.2669007778167725;0.5558339999999999;-2.902344501778269;-7.76600018627981;-58.217495881219236
196;3.2812509536743164;0.5558339999999999;-2.902344501778269;-7.76600018627981;-59.003612289760106
197;3.29557204246521;0.5558339999999999;-2.902344501778269;-7.76600018627981;-58.60933718702444
198;3.310004234313965;0.5558339999999999;-2.902344501778269;-7.76600018627981;-58.217495881219236
199;3.3245184421539307;0.5558339999999999;-2.902344501778269;-7.76600018627981;-58.217495881219236
200;3.338897705078125;0.5558339999999999;-2.902344501778269;-7.76600018627981;-58.217495881219236
201;3.353255033493042;0.5558339999999999;-2.902344501778269;-7.76600018627981;-59.003612289760106
202;3.3677172660827637;0.5558339999999999;-2.902344501778269;-7.76600018627981;-59.003612289760106
203;3.382157325744629;0.5558339999999999;-2.902344501778269;-7.76600018627981;-59.003612289760106
