;Time;Thrust;BEM pressure;N2O pressure
0;0.0;0.614;0.027900157931;45.663729813849
1;0.008078575134277344;0.615;0.026431729150000007;45.66666667141101
2;0.015389442443847656;0.616;0.027900157931;45.691629960688005
3;0.022704601287841797;0.614;0.06020559111300001;45.66666667141101
4;0.03000044822692871;0.615;0.026431729150000007;45.656387669944
5;0.03730058670043945;0.614;0.027900157931;45.684287816783005
6;0.044600486755371094;0.614;0.026431729150000007;45.651982383601
7;0.051889657974243164;0.615;0.026431729150000007;45.64317181091501
8;0.05923891067504883;0.615;0.026431729150000007;45.665198242630005
9;0.06662201881408691;0.614;0.029368586711999996;45.671071957754
10;0.07392430305480957;0.615;-0.005873704032;45.66666667141101
11;0.08122038841247559;0.614;0.026431729150000007;45.67841410165901
12;0.0885159969329834;0.615;0.027900157931;45.65932452750601
13;0.09581279754638672;0.615;0.027900157931;45.66226138506801
14;0.10310578346252441;0.614;0.027900157931;45.669603528973006
15;0.1103973388671875;0.615;-0.005873704032;45.65932452750601
16;0.11770915985107422;0.615;0.027900157931;45.66226138506801
17;0.12500548362731934;0.615;0.061674019894;45.66666667141101
18;0.13229894638061523;0.615;0.027900157931;45.70044053337401
19;0.13959026336669922;0.614;0.027900157931;45.675477244097
20;0.14689326286315918;0.615;0.026431729150000007;45.668135100192
21;0.1541893482208252;0.615;-0.004405275250999999;45.651982383601
22;0.16150283813476562;0.614;-0.004405275250999999;45.646108668477005
23;0.1687932014465332;0.615;0.027900157931;45.668135100192
24;0.17608857154846191;0.615;0.06020559111300001;45.663729813849
25;0.18338227272033691;0.615;0.029368586711999996;45.660792956287004
26;0.1906726360321045;0.613;0.027900157931;45.660792956287004
27;0.19796419143676758;0.615;0.029368586711999996;45.663729813849
28;0.20525527000427246;0.614;0.027900157931;45.668135100192
29;0.21254849433898926;0.615;0.027900157931;45.671071957754
30;0.21984171867370605;0.615;0.027900157931;45.665198242630005
31;0.22713303565979004;0.614;0.024963300368999998;45.65491924116301
32;0.2344350814819336;0.615;0.024963300368999998;45.68135095922101
33;0.24180293083190918;0.614;0.026431729150000007;45.675477244097
34;0.2491006851196289;0.615;0.026431729150000007;45.672540386535005
35;0.2564098834991455;0.615;-0.005873704032;45.671071957754
36;0.2637288570404053;0.615;0.026431729150000007;45.66666667141101
37;0.2710287570953369;0.615;0.061674019894;45.68575624556401
38;0.2783801555633545;0.616;0.026431729150000007;45.671071957754
39;0.2856736183166504;0.615;0.06020559111300001;45.671071957754
40;0.2929670810699463;0.615;0.06020559111300001;45.671071957754
41;0.3002595901489258;0.615;-0.007342132813000002;45.663729813849
42;0.30755186080932617;0.615;0.027900157931;45.67841410165901
43;0.3148458003997803;0.615;-0.0014684176890000025;45.66226138506801
44;0.32213807106018066;0.614;0.026431729150000007;45.65491924116301
45;0.32943058013916016;0.615;0.024963300368999998;45.671071957754
46;0.3367288112640381;0.614;0.0014684398730000006;45.651982383601
47;0.3440208435058594;0.614;0.026431729150000007;45.672540386535005
48;0.35131311416625977;0.614;0.027900157931;45.656387669944
49;0.35860323905944824;0.615;0.019089585245000006;45.663729813849
50;0.36595654487609863;0.615;0.017621156463999997;45.675477244097
51;0.37325239181518555;0.615;0.029368586711999996;45.66666667141101
52;0.3805420398712158;0.614;0.005873726215999998;45.669603528973006
53;0.387845516204834;0.614;0.027900157931;45.668135100192
54;0.3951377868652344;0.616;0.027900157931;45.66666667141101
55;0.40242791175842285;0.614;0.029368586711999996;45.672540386535005
56;0.40971946716308594;0.615;0.029368586711999996;45.651982383601
57;0.41701197624206543;0.615;0.027900157931;45.66666667141101
58;0.42430901527404785;0.614;0.027900157931;45.682819388002
59;0.43160223960876465;0.614;0.026431729150000007;45.67400881531601
60;0.43889617919921875;0.615;0.013215870121;45.65932452750601
61;0.4462013244628906;0.614;0.027900157931;45.67841410165901
62;0.4535553455352783;0.615;0.027900157931;45.665198242630005
63;0.4608485698699951;0.614;0.029368586711999996;45.675477244097
64;0.4681398868560791;0.614;0.027900157931;45.653450812382005
65;0.4754335880279541;0.614;0.027900157931;45.663729813849
66;0.4827260971069336;0.615;0.045521303303000006;45.676945672878006
67;0.4900166988372803;0.615;0.027900157931;45.69456681825
68;0.49730753898620605;0.614;0.027900157931;45.653450812382005
69;0.5046000480651855;0.615;0.027900157931;45.669603528973006
70;0.5119004249572754;0.615;0.029368586711999996;45.676945672878006
71;0.5191903114318848;0.614;0.026431729150000007;45.65491924116301
72;0.5265443325042725;0.614;0.014684298902000001;45.638766524572006
73;0.5338356494903564;0.614;0.027900157931;45.67400881531601
74;0.5411303043365479;0.614;0.027900157931;45.67400881531601
75;0.5484194755554199;0.614;-0.005873704032;45.657856098725006
76;0.5557229518890381;0.615;0.026431729150000007;45.653450812382005
77;0.5630133152008057;0.614;0.027900157931;45.657856098725006
78;0.570314884185791;0.614;0.004405297434999997;45.665198242630005
79;0.5776081085205078;0.615;0.019089585245000006;45.672540386535005
80;0.584937334060669;0.614;0.019089585245000006;45.646108668477005
81;0.5922322273254395;0.615;0.05286344720800001;45.650513954820006
82;0.5995237827301025;0.614;0.027900157931;45.67400881531601
83;0.6068150997161865;0.615;0.026431729150000007;45.672540386535005
84;0.614159107208252;0.614;0.027900157931;45.65932452750601
85;0.621455192565918;0.614;0.027900157931;45.660792956287004
86;0.628758430480957;0.615;0.010279012558999996;45.66226138506801
87;0.6365199089050293;0.614;0.027900157931;45.676945672878006
88;0.6438319683074951;0.614;0.011747441339999998;45.668135100192
89;0.6511454582214355;0.615;-0.007342132813000002;45.675477244097
90;0.6584393978118896;0.614;0.044052874522;45.65932452750601
91;0.6657328605651855;0.614;0.013215870121;45.671071957754
92;0.6730301380157471;0.615;0.027900157931;45.68135095922101
93;0.6803388595581055;0.615;0.045521303303000006;45.67400881531601
94;0.6876342296600342;0.614;0.027900157931;45.649045526039004
95;0.6949286460876465;0.615;0.011747441339999998;45.66226138506801
96;0.7026646137237549;0.614;0.026431729150000007;45.67400881531601
97;0.7106292247772217;0.614;0.029368586711999996;45.675477244097
98;0.7186014652252197;0.615;0.027900157931;45.657856098725006
99;0.726571798324585;0.614;0.027900157931;45.672540386535005
100;0.7345433235168457;0.615;0.022026442806999995;45.675477244097
101;0.7425112724304199;0.615;0.027900157931;45.66226138506801
102;0.7504818439483643;0.615;0.049926589646000004;45.675477244097
103;0.7595653533935547;0.615;0.026431729150000007;45.656387669944
104;0.7675375938415527;0.614;0.027900157931;45.656387669944
105;0.7755081653594971;0.615;0.019089585245000006;45.665198242630005
106;0.7834775447845459;0.614;-0.004405275250999999;45.676945672878006
107;0.791445255279541;0.614;0.029368586711999996;45.66666667141101
108;0.7994534969329834;0.614;0.027900157931;45.66226138506801
109;0.8074252605438232;0.615;0.027900157931;45.634361238229005
110;0.8153891563415527;0.614;0.026431729150000007;45.660792956287004
111;0.8233535289764404;0.614;0.029368586711999996;45.660792956287004
112;0.8313174247741699;0.614;0.029368586711999996;45.651982383601
113;0.8392822742462158;0.616;0.0014684398730000006;45.650513954820006
114;0.8472490310668945;0.614;-0.004405275250999999;45.64023495335301
115;0.8552122116088867;0.615;0.024963300368999998;45.649045526039004
116;0.8632709980010986;0.615;-0.004405275250999999;45.67400881531601
117;0.8712480068206787;0.615;-0.005873704032;45.660792956287004
118;0.8792135715484619;0.615;0.013215870121;45.668135100192
119;0.887183666229248;0.614;0.027900157931;45.67400881531601
120;0.8951492309570312;0.615;0.027900157931;45.675477244097
121;0.9031579494476318;0.615;0.026431729150000007;45.684287816783005
122;0.9111900329589844;0.615;0.027900157931;45.669603528973006
123;0.9191582202911377;0.615;0.029368586711999996;45.653450812382005
124;0.9271814823150635;0.615;0.027900157931;45.68135095922101
125;0.9351460933685303;0.614;0.027900157931;45.65932452750601
126;0.9431185722351074;0.615;0.026431729150000007;45.66226138506801
127;0.9510819911956787;0.615;0.027900157931;45.67841410165901
128;0.9591155052185059;0.614;0.027900157931;45.66226138506801
129;0.9671416282653809;0.615;0.026431729150000007;45.672540386535005
130;0.9751150608062744;0.615;-0.004405275250999999;45.65491924116301
131;0.9830880165100098;0.614;0.026431729150000007;45.65932452750601
132;0.9910566806793213;0.614;0.027900157931;45.653450812382005
133;0.9990909099578857;0.615;0.013215870121;45.657856098725006
134;1.0071611404418945;0.615;0.051395018427;45.691629960688005
135;1.015336513519287;0.615;0.05286344720800001;45.794419975358004
136;1.0233619213104248;0.615;0.07782673648499999;45.69309838946901
137;1.0313365459442139;0.614;0.051395018427;45.732745966556
138;1.0392959117889404;0.615;0.08516888039;45.722466965089005
139;1.047271490097046;0.615;0.06607930623700001;45.718061678746004
140;1.055253505706787;0.615;0.08663730917099999;45.726872251432006
141;1.0632500648498535;0.615;0.079295165266;45.703377390936005
142;1.071223497390747;0.615;0.058737162332;45.71659324996501
143;1.0791895389556885;0.615;0.05286344720800001;45.729809108994004
144;1.0871608257293701;0.615;0.08663730917099999;45.715124821184006
145;1.0951197147369385;0.615;0.088105737952;45.71953010752701
146;1.1031215190887451;0.613;0.088105737952;45.725403822651
147;1.1111607551574707;0.615;0.054331875989;45.725403822651
148;1.119140863418579;0.615;0.088105737952;45.73861968168001
149;1.1272006034851074;0.615;0.08663730917099999;45.73127753777501
150;1.1351757049560547;0.615;0.08663730917099999;45.720998536308
151;1.1431481838226318;0.615;0.12041117113399999;45.726872251432006
152;1.1511869430541992;0.616;0.088105737952;45.713656392403
153;1.159177303314209;0.615;0.08663730917099999;45.715124821184006
154;1.1671538352966309;0.615;0.088105737952;45.72393539387001
155;1.1751368045806885;0.615;0.058737162332;45.696035247031006
156;1.1831088066101074;0.615;0.083700451609;45.70484581971701
157;1.1910793781280518;0.615;0.08516888039;45.71218796362201
158;1.1991393566131592;0.615;0.08516888039;45.715124821184006
159;1.2072172164916992;0.615;0.088105737952;45.70925110606
160;1.2151939868927002;0.615;0.08663730917099999;45.722466965089005
161;1.2231674194335938;0.614;0.08663730917099999;45.715124821184006
162;1.2311971187591553;0.615;0.08663730917099999;45.729809108994004
163;1.2391672134399414;0.615;0.07048459258;45.715124821184006
164;1.247201919555664;0.615;0.08663730917099999;45.71953010752701
165;1.2551748752593994;0.616;0.08663730917099999;45.703377390936005
166;1.2631540298461914;0.614;0.08663730917099999;45.707782677279006
167;1.2711963653564453;0.615;0.09985316820000001;45.70484581971701
168;1.2791738510131836;0.615;0.088105737952;45.703377390936005
169;1.2872004508972168;0.614;0.08663730917099999;45.703377390936005
170;1.2951712608337402;0.614;0.08663730917099999;45.71218796362201
171;1.3031821250915527;0.615;0.08516888039;45.70044053337401
172;1.3111677169799805;0.614;0.088105737952;45.691629960688005
173;1.3191401958465576;0.615;0.054331875989;45.707782677279006
174;1.3271756172180176;0.614;0.08663730917099999;45.696035247031006
175;1.3351500034332275;0.615;0.08516888039;45.70925110606
176;1.3431189060211182;0.615;0.07195302136100001;45.71659324996501
177;1.351088523864746;0.615;0.054331875989;45.706314248498
178;1.3591291904449463;0.616;0.089574166733;45.696035247031006
179;1.3671655654907227;0.615;0.088105737952;45.69456681825
180;1.375145673751831;0.614;0.06607930623700001;45.691629960688005
181;1.3831162452697754;0.616;0.089574166733;45.71953010752701
182;1.391080617904663;0.615;0.08663730917099999;45.69456681825
183;1.3991267681121826;0.615;0.08663730917099999;45.701908962155
184;1.4071986675262451;0.615;0.088105737952;45.703377390936005
185;1.4151713848114014;0.616;0.058737162332;45.69750367581201
186;1.4231505393981934;0.615;0.08516888039;45.707782677279006
187;1.4311833381652832;0.616;0.054331875989;45.698972104593004
188;1.439164161682129;0.615;0.054331875989;45.69750367581201
189;1.4471900463104248;0.615;0.05286344720800001;45.687224674345
190;1.4551622867584229;0.614;0.054331875989;45.69456681825
191;1.4631540775299072;0.614;0.08663730917099999;45.706314248498
192;1.4711825847625732;0.615;0.08516888039;45.67841410165901
193;1.479156494140625;0.615;0.089574166733;45.696035247031006
194;1.4871807098388672;0.614;0.051395018427;45.67841410165901
195;1.4951705932617188;0.615;0.088105737952;45.69750367581201
196;1.503147840499878;0.615;0.08663730917099999;45.69456681825
197;1.5112085342407227;0.615;0.088105737952;45.688693103126006
198;1.5191833972930908;0.613;0.055800304769999996;45.707782677279006
199;1.527177333831787;0.614;0.088105737952;45.713656392403
200;1.5351519584655762;0.614;0.079295165266;45.696035247031006
201;1.5431246757507324;0.615;0.088105737952;45.69456681825
202;1.551156759262085;0.615;0.08663730917099999;45.696035247031006
203;1.5591762065887451;0.616;0.08663730917099999;45.72393539387001
204;1.5671494007110596;0.614;0.08663730917099999;45.69750367581201
205;1.5751471519470215;0.615;0.088105737952;45.696035247031006
206;1.583120346069336;0.615;0.07195302136100001;45.68575624556401
207;1.5911970138549805;0.614;0.054331875989;45.68135095922101
208;1.599194049835205;0.615;0.08663730917099999;45.68135095922101
209;1.6072297096252441;0.615;0.08663730917099999;45.69309838946901
210;1.6152267456054688;0.615;0.069016163799;45.69750367581201
211;1.6232643127441406;0.615;0.08663730917099999;45.703377390936005
212;1.631237268447876;0.615;0.088105737952;45.691629960688005
213;1.640322208404541;0.614;0.069016163799;45.706314248498
214;1.648301601409912;0.614;0.08663730917099999;45.70044053337401
215;1.6563541889190674;0.615;0.08663730917099999;45.691629960688005
216;1.664384365081787;0.615;0.08663730917099999;45.703377390936005
217;1.6723577976226807;0.615;0.089574166733;45.69456681825
218;1.6803271770477295;0.615;0.05286344720800001;45.691629960688005
219;1.6882967948913574;0.615;0.088105737952;45.69309838946901
220;1.6963319778442383;0.615;0.11894274235300001;45.69750367581201
221;1.7043075561523438;0.615;0.05286344720800001;45.701908962155
222;1.712324857711792;0.615;0.054331875989;45.69456681825
223;1.7202954292297363;0.614;0.055800304769999996;45.684287816783005
224;1.7282648086547852;0.615;0.088105737952;45.70044053337401
225;1.7362370491027832;0.615;0.08663730917099999;45.687224674345
226;1.744211196899414;0.615;0.08663730917099999;45.69456681825
227;1.752180576324463;0.615;0.088105737952;45.675477244097
228;1.7601518630981445;0.615;0.088105737952;45.675477244097
229;1.7681255340576172;0.614;0.08663730917099999;45.696035247031006
230;1.7761015892028809;0.615;0.051395018427;45.69456681825
231;1.78407883644104;0.615;0.117474313572;45.67841410165901
232;1.7920513153076172;0.615;0.05286344720800001;45.70044053337401
233;1.8000187873840332;0.615;0.08663730917099999;45.675477244097
234;1.808028221130371;0.614;0.121879599915;45.69750367581201
235;1.8160085678100586;0.614;0.089574166733;45.696035247031006
236;1.8239800930023193;0.615;0.08663730917099999;45.688693103126006
237;1.83194899559021;0.615;0.08663730917099999;45.672540386535005
238;1.839923620223999;0.614;0.12041117113399999;45.684287816783005
239;1.847898006439209;0.615;0.12041117113399999;45.672540386535005
240;1.8558757305145264;0.615;0.08663730917099999;45.682819388002
241;1.8638572692871094;0.616;0.088105737952;45.691629960688005
242;1.8719043731689453;0.615;0.11600588479099999;45.68575624556401
243;1.879875898361206;0.615;0.088105737952;45.688693103126006
244;1.8878512382507324;0.615;0.088105737952;45.671071957754
245;1.895892858505249;0.614;0.12041117113399999;45.675477244097
246;1.903864860534668;0.615;0.08663730917099999;45.690161531907
247;1.911879301071167;0.616;0.088105737952;45.67400881531601
248;1.9198658466339111;0.614;0.08663730917099999;45.660792956287004
249;1.9278507232666016;0.615;0.08663730917099999;45.675477244097
250;1.9358289241790771;0.614;0.088105737952;45.69456681825
251;1.9438111782073975;0.615;0.089574166733;45.67841410165901
252;1.9518458843231201;0.615;0.088105737952;45.67400881531601
253;1.9598233699798584;0.615;0.088105737952;45.679882530440004
254;1.9677948951721191;0.615;0.088105737952;45.706314248498
255;1.9757652282714844;0.616;0.089574166733;45.68135095922101
256;1.9838008880615234;0.616;0.092511024295;45.66666667141101
257;1.9918255805969238;0.615;0.088105737952;45.68575624556401
258;1.999804973602295;0.615;0.08663730917099999;45.66226138506801
259;2.0077779293060303;0.616;0.08516888039;45.665198242630005
260;2.01578950881958;0.615;0.088105737952;45.656387669944
261;2.0238237380981445;0.615;0.054331875989;45.669603528973006
262;2.031862258911133;0.615;0.08663730917099999;45.671071957754
263;2.0398380756378174;0.615;0.07195302136100001;45.679882530440004
264;2.047814130783081;0.615;0.088105737952;45.67400881531601
265;2.0557823181152344;0.614;0.088105737952;45.679882530440004
266;2.0638201236724854;0.615;0.088105737952;45.675477244097
267;2.0718772411346436;0.615;0.102790025762;45.68575624556401
268;2.079850196838379;0.615;0.08663730917099999;45.672540386535005
269;2.0878238677978516;0.615;0.079295165266;45.676945672878006
270;2.0957984924316406;0.614;0.088105737952;45.67841410165901
271;2.103837013244629;0.615;0.05286344720800001;45.675477244097
272;2.111906051635742;0.615;0.08663730917099999;45.672540386535005
273;2.1198856830596924;0.615;0.08663730917099999;45.68575624556401
274;2.1278605461120605;0.615;0.088105737952;45.67400881531601
275;2.136390447616577;0.615;0.069016163799;45.665198242630005
276;2.144540309906006;0.615;0.12041117113399999;45.675477244097
277;2.152517080307007;0.615;0.06607930623700001;45.67400881531601
278;2.160693645477295;0.616;0.08663730917099999;45.668135100192
279;2.168668031692505;0.615;0.088105737952;45.66666667141101
280;2.1766538619995117;0.614;0.08516888039;45.660792956287004
281;2.1846272945404053;0.615;0.088105737952;45.672540386535005
282;2.19260573387146;0.615;0.08663730917099999;45.656387669944
283;2.2005772590637207;0.616;0.074889878923;45.672540386535005
284;2.208547592163086;0.614;0.08663730917099999;45.67841410165901
285;2.216564416885376;0.615;0.088105737952;45.663729813849
286;2.2245423793792725;0.614;0.08663730917099999;45.68135095922101
287;2.232513427734375;0.615;0.08663730917099999;45.672540386535005
288;2.2404775619506836;0.614;0.064610877456;45.663729813849
289;2.248450756072998;0.615;0.088105737952;45.671071957754
290;2.2565011978149414;0.615;0.08663730917099999;45.676945672878006
291;2.2645373344421387;0.615;0.05286344720800001;45.665198242630005
292;2.2725181579589844;0.616;0.054331875989;45.656387669944
293;2.2804930210113525;0.615;0.054331875989;45.669603528973006
294;2.2884714603424072;0.615;0.088105737952;45.663729813849
295;2.2965033054351807;0.615;0.05286344720800001;45.644640239696
296;2.3045337200164795;0.614;0.088105737952;45.660792956287004
297;2.3125438690185547;0.614;0.08663730917099999;45.656387669944
298;2.3205246925354004;0.615;0.08663730917099999;45.65932452750601
299;2.328554391860962;0.615;0.08663730917099999;45.657856098725006
300;2.336527109146118;0.615;0.12041117113399999;45.66226138506801
301;2.344508171081543;0.614;0.088105737952;45.665198242630005
302;2.352478265762329;0.616;0.05286344720800001;45.665198242630005
303;2.360442876815796;0.614;0.07195302136100001;45.663729813849
304;2.3684117794036865;0.614;0.11894274235300001;45.653450812382005
305;2.3764541149139404;0.614;0.088105737952;45.669603528973006
306;2.384488582611084;0.615;0.08663730917099999;45.65491924116301
307;2.392458200454712;0.615;0.054331875989;45.669603528973006
308;2.400423526763916;0.614;0.054331875989;45.671071957754
309;2.408398389816284;0.615;0.073421450142;45.644640239696
310;2.4164810180664062;0.615;0.05286344720800001;45.669603528973006
