;Time;Thrust;BEM pressure;N2O pressure
0;0.0;32.113;-0.045521281119;-0.0469897099
1;0.007962226867675781;32.109;-0.048458138681000004;-0.0469897099
2;0.015179157257080078;32.114;-0.0469897099;-0.0469897099
3;0.022391319274902344;32.126;-0.0469897099;-0.045521281119
4;0.0296175479888916;32.096000000000004;-0.045521281119;-0.048458138681000004
5;0.036838531494140625;32.123;-0.0469897099;-0.0469897099
6;0.04405617713928223;32.128;-0.045521281119;-0.045521281119
7;0.05126023292541504;32.131;-0.0469897099;-0.0469897099
8;0.058464765548706055;32.126;-0.045521281119;-0.045521281119
9;0.06566953659057617;32.12;-0.045521281119;-0.0469897099
10;0.07287335395812988;32.134;-0.0469897099;-0.0469897099
11;0.08010292053222656;32.126;-0.0469897099;-0.0469897099
12;0.0873250961303711;32.096000000000004;-0.045521281119;-0.045521281119
13;0.09453630447387695;32.108000000000004;-0.045521281119;-0.045521281119
14;0.10173392295837402;32.111000000000004;-0.045521281119;-0.048458138681000004
15;0.10893130302429199;32.092;-0.045521281119;-0.0469897099
16;0.11615490913391113;32.109;-0.045521281119;-0.0469897099
17;0.12335586547851562;32.094;-0.0469897099;-0.0469897099
18;0.1305549144744873;32.096000000000004;-0.045521281119;-0.045521281119
19;0.1377544403076172;32.096000000000004;-0.0469897099;-0.0469897099
20;0.14496517181396484;32.112;-0.0469897099;-0.048458138681000004
21;0.15216779708862305;32.098;-0.0469897099;-0.045521281119
22;0.15936803817749023;32.116;-0.0469897099;-0.0469897099
23;0.16656756401062012;32.095;-0.0469897099;-0.0469897099
24;0.17380595207214355;32.1;-0.045521281119;-0.045521281119
25;0.18100500106811523;32.111000000000004;-0.0469897099;-0.045521281119
26;0.18825006484985352;32.115;-0.0469897099;-0.0469897099
27;0.19545292854309082;32.106;-0.0469897099;-0.0469897099
28;0.2026526927947998;32.088;-0.0469897099;-0.045521281119
29;0.2098541259765625;32.084;-0.0469897099;-0.0469897099
30;0.217055082321167;32.062;-0.0469897099;-0.0469897099
31;0.224259614944458;32.087;-0.0469897099;-0.0469897099
32;0.23147130012512207;32.074;-0.045521281119;-0.0469897099
33;0.23867106437683105;32.054;-0.045521281119;-0.0469897099
34;0.245880126953125;32.067;-0.0469897099;-0.0469897099
35;0.25308942794799805;32.054;-0.045521281119;-0.045521281119
36;0.2603025436401367;32.019;-0.0469897099;-0.0469897099
37;0.26750898361206055;32.025;-0.0469897099;-0.0469897099
38;0.27471423149108887;32.003;-0.0469897099;-0.048458138681000004
39;0.2819194793701172;31.997;-0.0469897099;-0.0469897099
40;0.2891199588775635;31.978;-0.0469897099;-0.0469897099
41;0.29630541801452637;31.963;-0.045521281119;-0.045521281119
42;0.3035013675689697;31.932000000000002;-0.0469897099;-0.0469897099
43;0.31070661544799805;31.913;-0.045521281119;-0.045521281119
44;0.31791234016418457;31.914;-0.045521281119;-0.0469897099
45;0.3251152038574219;31.892;-0.0469897099;-0.0469897099
46;0.3323202133178711;31.846;-0.0469897099;-0.045521281119
47;0.33952760696411133;31.845000000000002;-0.0469897099;-0.0469897099
48;0.3467295169830322;31.812;-0.045521281119;-0.0469897099
49;0.35393285751342773;31.786;-0.0469897099;-0.048458138681000004
50;0.36114954948425293;31.746000000000002;-0.0469897099;-0.0469897099
51;0.36835551261901855;31.738;-0.0469897099;-0.0469897099
52;0.3755955696105957;31.73;-0.045521281119;-0.045521281119
53;0.3828127384185791;31.698;-0.045521281119;-0.0469897099
54;0.39001917839050293;31.656000000000002;-0.045521281119;-0.0469897099
55;0.39722371101379395;31.654;-0.0469897099;-0.0469897099
56;0.40442490577697754;31.593;-0.045521281119;-0.0469897099
57;0.41163063049316406;31.563000000000002;-0.0469897099;-0.045521281119
58;0.4188346862792969;31.53;-0.045521281119;-0.0469897099
59;0.4260365962982178;31.507;-0.045521281119;-0.045521281119
60;0.43324851989746094;31.484;-0.045521281119;-0.0469897099
61;0.4404630661010742;31.470000000000002;-0.045521281119;-0.0469897099
62;0.44768857955932617;31.400000000000002;-0.0469897099;-0.0469897099
63;0.4548912048339844;31.367;-0.0469897099;-0.045521281119
64;0.4620981216430664;31.344;-0.045521281119;-0.0469897099
65;0.4693000316619873;31.321;-0.045521281119;-0.0469897099
66;0.4764828681945801;31.3;-0.045521281119;-0.0469897099
67;0.4837305545806885;31.267;-0.0469897099;-0.045521281119
68;0.4909374713897705;31.239;-0.045521281119;-0.0469897099
69;0.498154878616333;31.201;-0.045521281119;-0.0469897099
70;0.5053722858428955;31.135;-0.045521281119;-0.0469897099
71;0.512575626373291;31.080000000000002;-0.045521281119;-0.0469897099
72;0.5197799205780029;31.01;-0.045521281119;-0.0469897099
73;0.5269796848297119;30.961000000000002;-0.045521281119;-0.045521281119
74;0.534196138381958;30.928;-0.0469897099;-0.0469897099
75;0.5414440631866455;30.895;-0.0469897099;-0.0469897099
76;0.5486464500427246;30.841;-0.0469897099;-0.045521281119
77;0.5558512210845947;30.762;-0.045521281119;-0.0469897099
78;0.5630688667297363;30.709;-0.0469897099;-0.0469897099
79;0.5702683925628662;30.66;-0.0469897099;-0.0469897099
80;0.5774662494659424;30.604;-0.045521281119;-0.0469897099
81;0.5846664905548096;30.508;-0.0469897099;-0.0469897099
82;0.5918653011322021;30.394000000000002;-0.0469897099;-0.0469897099
83;0.5990710258483887;30.305;-0.045521281119;-0.045521281119
84;0.6062698364257812;30.218;-0.045521281119;-0.0469897099
85;0.6134722232818604;30.152;-0.045521281119;-0.045521281119
86;0.6206803321838379;30.062;-0.045521281119;-0.0469897099
87;0.6278784275054932;29.985;-0.0469897099;-0.0469897099
88;0.6350798606872559;29.862000000000002;-0.045521281119;-0.0469897099
89;0.6422793865203857;29.726;-0.0469897099;-0.0469897099
90;0.6494848728179932;29.567;-0.045521281119;-0.0469897099
91;0.6566824913024902;29.443;-0.045521281119;-0.0469897099
92;0.6638898849487305;29.339000000000002;-0.0469897099;-0.0469897099
93;0.6710960865020752;29.189;-0.0469897099;-0.0469897099
94;0.6782946586608887;29.024;-0.048458138681000004;-0.048458138681000004
95;0.6855101585388184;28.87;-0.0469897099;-0.0469897099
96;0.6927101612091064;28.667;-0.0469897099;-0.045521281119
97;0.6999082565307617;28.451;-0.045521281119;-0.0469897099
98;0.7071065902709961;28.222;-0.045521281119;-0.048458138681000004
99;0.7143130302429199;27.990000000000002;-0.045521281119;-0.048458138681000004
100;0.7215166091918945;27.78;-0.045521281119;-0.0469897099
101;0.7287192344665527;27.559;-0.045521281119;-0.0469897099
102;0.7364499568939209;27.34;-0.0469897099;-0.045521281119
103;0.745866060256958;27.108;-0.0469897099;-0.0469897099
104;0.7538866996765137;26.891000000000002;-0.0469897099;-0.0469897099
105;0.7618820667266846;26.632;-0.045521281119;-0.0469897099
106;0.769885778427124;26.285;-0.0469897099;-0.0469897099
107;0.777881383895874;25.922;-0.0469897099;-0.048458138681000004
108;0.7858691215515137;25.562;-0.0469897099;-0.0469897099
109;0.7938578128814697;25.309;-0.0469897099;-0.0469897099
110;0.8018419742584229;25.092;-0.0469897099;-0.045521281119
111;0.8098266124725342;24.902;-0.0469897099;-0.045521281119
112;0.8178184032440186;24.761;-0.0469897099;-0.0469897099
113;0.8258721828460693;24.622;-0.045521281119;-0.0469897099
114;0.8339159488677979;24.291;-0.045521281119;-0.048458138681000004
115;0.8419210910797119;23.858;-0.0469897099;-0.0469897099
116;0.8499095439910889;23.389;-0.0469897099;-0.0469897099
117;0.857903003692627;23.01;-0.0469897099;-0.045521281119
118;0.8659000396728516;22.834;-0.045521281119;-0.045521281119
119;0.8738908767700195;22.757;-0.045521281119;-0.045521281119
120;0.8818879127502441;22.555;-0.0469897099;-0.048458138681000004
121;0.8898777961730957;22.357;-0.0469897099;-0.0469897099
122;0.8978664875030518;22.055;-0.0469897099;-0.0469897099
123;0.90586256980896;21.685;-0.0469897099;-0.045521281119
124;0.9138531684875488;21.372;-0.0469897099;-0.0469897099
125;0.9218490123748779;21.09;-0.0469897099;-0.0469897099
126;0.92984938621521;20.877;-0.0469897099;-0.045521281119
127;0.9378757476806641;20.78;-0.0469897099;-0.045521281119
128;0.9458682537078857;20.785;-0.0469897099;-0.045521281119
129;0.9538664817810059;20.792;-0.0469897099;-0.045521281119
130;0.9618687629699707;20.646;-0.0469897099;-0.0469897099
131;0.9698677062988281;20.490000000000002;-0.0469897099;-0.0469897099
132;0.9778544902801514;20.264;-0.0469897099;-0.0469897099
133;0.9858472347259521;19.969;-0.0469897099;-0.045521281119
134;0.9938452243804932;19.661;-0.0469897099;-0.0469897099
135;1.0018506050109863;19.391000000000002;-0.048458138681000004;-0.045521281119
136;1.0108792781829834;19.224;-0.0469897099;-0.0469897099
137;1.0188548564910889;19.101;-0.0469897099;-0.048458138681000004
138;1.0268731117248535;19.017;-0.0469897099;-0.0469897099
139;1.034911870956421;18.88;-0.045521281119;-0.045521281119
140;1.042902946472168;18.687;-0.045521281119;-0.0469897099
141;1.050905704498291;18.488;-0.0469897099;-0.0469897099
142;1.0589001178741455;18.241;-0.045521281119;-0.0469897099
143;1.0668931007385254;17.955000000000002;-0.0469897099;-0.045521281119
144;1.0748817920684814;17.645;-0.0469897099;-0.045521281119
145;1.082871437072754;17.376;-0.0469897099;-0.0469897099
146;1.0909035205841064;17.148;-0.045521281119;-0.045521281119
147;1.0989041328430176;17.062;-0.0469897099;-0.0469897099
148;1.1068933010101318;17.007;-0.0469897099;-0.045521281119
149;1.1148943901062012;16.989;-0.0469897099;-0.048458138681000004
150;1.122896432876587;16.979;-0.0469897099;-0.0469897099
151;1.1308889389038086;16.993000000000002;-0.0469897099;-0.0469897099
152;1.1389293670654297;16.986;-0.0469897099;-0.0469897099
153;1.1471662521362305;16.983;-0.0469897099;-0.0469897099
154;1.155148983001709;16.98;-0.045521281119;-0.0469897099
155;1.1631426811218262;16.990000000000002;-0.0469897099;-0.0469897099
156;1.1711375713348389;16.984;-0.048458138681000004;-0.048458138681000004
157;1.1792526245117188;16.979;-0.045521281119;-0.0469897099
158;1.187251091003418;16.990000000000002;-0.045521281119;-0.045521281119
159;1.1952636241912842;16.987000000000002;-0.045521281119;-0.0469897099
160;1.2032687664031982;16.991;-0.0469897099;-0.0469897099
161;1.211268424987793;16.997;-0.0469897099;-0.045521281119
162;1.2192659378051758;16.968;-0.045521281119;-0.048458138681000004
163;1.2272605895996094;16.994;-0.0469897099;-0.0469897099
164;1.2353003025054932;16.974;-0.0469897099;-0.0469897099
165;1.2433130741119385;16.984;-0.045521281119;-0.0469897099
166;1.2513186931610107;16.979;-0.0469897099;-0.045521281119
167;1.2593193054199219;16.984;-0.0469897099;-0.0469897099
168;1.267317295074463;16.989;-0.048458138681000004;-0.0469897099
169;1.2752931118011475;16.979;-0.045521281119;-0.045521281119
170;1.2832841873168945;16.975;-0.0469897099;-0.0469897099
171;1.2912814617156982;16.994;-0.045521281119;-0.0469897099
172;1.299288034439087;16.981;-0.0469897099;-0.0469897099
173;1.3072867393493652;16.988;-0.0469897099;-0.048458138681000004
174;1.3152894973754883;16.983;-0.0469897099;-0.0469897099
175;1.3232874870300293;16.977;-0.045521281119;-0.0469897099
176;1.331287145614624;16.986;-0.045521281119;-0.045521281119
177;1.3393230438232422;16.983;-0.0469897099;-0.048458138681000004
178;1.3473174571990967;16.997;-0.045521281119;-0.0469897099
179;1.3553097248077393;16.987000000000002;-0.044052852338;-0.0469897099
180;1.363569974899292;16.975;-0.0469897099;-0.0469897099
181;1.3718552589416504;16.973;-0.045521281119;-0.0469897099
182;1.3798718452453613;16.98;-0.045521281119;-0.045521281119
183;1.3878686428070068;16.983;-0.045521281119;-0.0469897099
184;1.3958618640899658;16.986;-0.0469897099;-0.0469897099
185;1.403852939605713;16.977;-0.0469897099;-0.0469897099
186;1.411851167678833;16.992;-0.0469897099;-0.0469897099
187;1.4198546409606934;16.974;-0.045521281119;-0.0469897099
188;1.4278461933135986;16.982;-0.045521281119;-0.045521281119
189;1.4358575344085693;16.995;-0.045521281119;-0.0469897099
190;1.4438507556915283;16.973;-0.045521281119;-0.045521281119
191;1.4518482685089111;16.98;-0.0469897099;-0.0469897099
192;1.4598662853240967;16.984;-0.0469897099;-0.0469897099
193;1.4678666591644287;17.003;-0.0469897099;-0.0469897099
194;1.4758615493774414;16.986;-0.0469897099;-0.0469897099
195;1.4838688373565674;16.98;-0.045521281119;-0.045521281119
196;1.4918606281280518;16.968;-0.0469897099;-0.0469897099
197;1.499866008758545;16.987000000000002;-0.045521281119;-0.0469897099
198;1.5078628063201904;16.971;-0.0469897099;-0.045521281119
199;1.515866994857788;16.974;-0.0469897099;-0.0469897099
200;1.5238595008850098;16.985;-0.0469897099;-0.0469897099
201;1.5318663120269775;16.98;-0.0469897099;-0.045521281119
202;1.5399389266967773;16.976;-0.0469897099;-0.0469897099
203;1.547940969467163;16.991;-0.0469897099;-0.0469897099
204;1.5559954643249512;16.971;-0.0469897099;-0.0469897099
205;1.5640308856964111;16.962;-0.0469897099;-0.0469897099
206;1.5720276832580566;16.977;-0.045521281119;-0.0469897099
207;1.5800197124481201;16.995;-0.0469897099;-0.044052852338
208;1.588015079498291;16.985;-0.0469897099;-0.045521281119
209;1.595999002456665;16.996;-0.0469897099;-0.0469897099
210;1.604013204574585;16.962;-0.045521281119;-0.0469897099
211;1.6120076179504395;16.983;-0.0469897099;-0.0469897099
212;1.620011329650879;16.987000000000002;-0.045521281119;-0.048458138681000004
213;1.6292507648468018;16.973;-0.045521281119;-0.045521281119
214;1.6373040676116943;16.972;-0.0469897099;-0.045521281119
215;1.6452982425689697;16.996;-0.0469897099;-0.045521281119
216;1.6532862186431885;16.983;-0.045521281119;-0.0469897099
217;1.6612801551818848;16.989;-0.0469897099;-0.0469897099
218;1.669276475906372;16.967;-0.045521281119;-0.0469897099
219;1.6772651672363281;16.983;-0.0469897099;-0.0469897099
220;1.6852633953094482;16.984;-0.045521281119;-0.0469897099
221;1.6932601928710938;16.993000000000002;-0.045521281119;-0.045521281119
222;1.7012536525726318;16.995;-0.0469897099;-0.045521281119
223;1.709256649017334;16.987000000000002;-0.0469897099;-0.0469897099
224;1.7172560691833496;16.981;-0.045521281119;-0.0469897099
225;1.7252471446990967;16.981;-0.0469897099;-0.0469897099
226;1.7332472801208496;16.982;-0.0469897099;-0.0469897099
227;1.7413678169250488;16.974;-0.045521281119;-0.0469897099
228;1.7493674755096436;16.978;-0.0469897099;-0.0469897099
229;1.7573835849761963;16.989;-0.0469897099;-0.045521281119
230;1.7653815746307373;16.982;-0.0469897099;-0.0469897099
231;1.773371696472168;16.989;-0.045521281119;-0.0469897099
232;1.7813632488250732;16.969;-0.045521281119;-0.0469897099
233;1.7893574237823486;16.979;-0.0469897099;-0.045521281119
234;1.7973508834838867;16.978;-0.045521281119;-0.0469897099
235;1.8053357601165771;16.977;-0.0469897099;-0.0469897099
236;1.8133199214935303;16.976;-0.0469897099;-0.0469897099
237;1.8213119506835938;16.988;-0.0469897099;-0.0469897099
238;1.8293073177337646;16.962;-0.0469897099;-0.045521281119
239;1.837336540222168;17.0;-0.0469897099;-0.0469897099
240;1.8453314304351807;16.969;-0.0469897099;-0.0469897099
241;1.8533265590667725;16.965;-0.0469897099;-0.0469897099
242;1.8613214492797852;16.965;-0.0469897099;-0.048458138681000004
243;1.869318962097168;16.991;-0.045521281119;-0.0469897099
244;1.8773162364959717;16.981;-0.045521281119;-0.0469897099
245;1.8853075504302979;16.966;-0.0469897099;-0.0469897099
246;1.8933019638061523;16.98;-0.045521281119;-0.0469897099
247;1.9012980461120605;16.983;-0.045521281119;-0.0469897099
248;1.9092953205108643;16.978;-0.045521281119;-0.045521281119
249;1.9172897338867188;16.978;-0.045521281119;-0.0469897099
250;1.9252846240997314;17.001;-0.0469897099;-0.0469897099
251;1.933272123336792;16.995;-0.0469897099;-0.0469897099
252;1.9413056373596191;16.987000000000002;-0.0469897099;-0.0469897099
253;1.9493114948272705;16.982;-0.0469897099;-0.048458138681000004
254;1.9573111534118652;16.987000000000002;-0.0469897099;-0.0469897099
255;1.9653148651123047;16.997;-0.0469897099;-0.0469897099
256;1.9733121395111084;16.988;-0.045521281119;-0.0469897099
257;1.98130464553833;16.978;-0.0469897099;-0.0469897099
258;1.9892995357513428;16.982;-0.0469897099;-0.0469897099
259;1.9973037242889404;17.0;-0.0469897099;-0.0469897099
260;2.005824327468872;16.989;-0.045521281119;-0.045521281119
261;2.0138602256774902;16.989;-0.0469897099;-0.045521281119
262;2.021864652633667;16.978;-0.045521281119;-0.0469897099
263;2.0298526287078857;16.972;-0.045521281119;-0.0469897099
264;2.0378758907318115;16.969;-0.0469897099;-0.0469897099
265;2.0459296703338623;16.979;-0.045521281119;-0.0469897099
266;2.053931951522827;16.974;-0.0469897099;-0.0469897099
267;2.061922550201416;16.984;-0.0469897099;-0.0469897099
268;2.069920063018799;16.979;-0.0469897099;-0.0469897099
269;2.0779101848602295;16.983;-0.045521281119;-0.0469897099
270;2.0858988761901855;16.982;-0.045521281119;-0.048458138681000004
271;2.09395170211792;16.98;-0.045521281119;-0.0469897099
272;2.1019492149353027;16.977;-0.044052852338;-0.0469897099
273;2.1099448204040527;16.98;-0.045521281119;-0.0469897099
274;2.11794376373291;16.976;-0.0469897099;-0.0469897099
275;2.1259472370147705;16.991;-0.0469897099;-0.045521281119
276;2.133953094482422;16.97;-0.0469897099;-0.0469897099
277;2.1419503688812256;16.959;-0.0469897099;-0.0469897099
278;2.149949312210083;16.985;-0.0469897099;-0.0469897099
279;2.1579477787017822;16.978;-0.0469897099;-0.0469897099
280;2.16593861579895;16.969;-0.045521281119;-0.0469897099
281;2.1739423274993896;17.002;-0.0469897099;-0.0469897099
282;2.181936025619507;16.961000000000002;-0.045521281119;-0.048458138681000004
283;2.190016984939575;16.976;-0.0469897099;-0.0469897099
284;2.1980185508728027;16.98;-0.0469897099;-0.0469897099
285;2.206007957458496;16.975;-0.0469897099;-0.0469897099
286;2.2140021324157715;16.978;-0.045521281119;-0.0469897099
287;2.222001075744629;16.975;-0.045521281119;-0.0469897099
288;2.229998826980591;16.964;-0.045521281119;-0.0469897099
289;2.237995147705078;16.975;-0.0469897099;-0.048458138681000004
290;2.2460780143737793;16.986;-0.0469897099;-0.0469897099
291;2.2540712356567383;16.959;-0.0469897099;-0.0469897099
292;2.2620627880096436;16.974;-0.0469897099;-0.045521281119
293;2.270109176635742;16.986;-0.0469897099;-0.0469897099
294;2.2781035900115967;16.989;-0.045521281119;-0.045521281119
295;2.2861008644104004;16.969;-0.045521281119;-0.0469897099
296;2.2940874099731445;16.97;-0.0469897099;-0.045521281119
297;2.302074432373047;16.969;-0.0469897099;-0.0469897099
298;2.3100712299346924;16.971;-0.0469897099;-0.0469897099
299;2.318063259124756;16.969;-0.0469897099;-0.0469897099
300;2.3260586261749268;16.983;-0.0469897099;-0.0469897099
301;2.334049940109253;16.972;-0.0469897099;-0.045521281119
302;2.342078924179077;16.978;-0.0469897099;-0.0469897099
303;2.350078582763672;16.97;-0.045521281119;-0.045521281119
304;2.358076572418213;16.971;-0.045521281119;-0.0469897099
305;2.3660695552825928;16.978;-0.0469897099;-0.045521281119
306;2.3740646839141846;16.976;-0.0469897099;-0.045521281119
307;2.3820552825927734;16.971;-0.045521281119;-0.0469897099
308;2.3900532722473145;16.969;-0.0469897099;-0.0469897099
309;2.3980510234832764;16.96;-0.045521281119;-0.045521281119
310;2.406043767929077;16.987000000000002;-0.0469897099;-0.048458138681000004
311;2.4140474796295166;16.964;-0.0469897099;-0.0469897099
312;2.422044038772583;16.975;-0.045521281119;-0.044052852338
313;2.4300403594970703;16.976;-0.0469897099;-0.0469897099
314;2.4380502700805664;16.974;-0.0469897099;-0.0469897099
315;2.4461252689361572;16.968;-0.0469897099;-0.0469897099
316;2.454115390777588;16.979;-0.045521281119;-0.0469897099
317;2.4621059894561768;16.979;-0.0469897099;-0.0469897099
318;2.4701027870178223;16.978;-0.0469897099;-0.0469897099
319;2.4780919551849365;16.974;-0.0469897099;-0.0469897099
320;2.486093759536743;16.975;-0.0469897099;-0.045521281119
321;2.494082450866699;16.986;-0.0469897099;-0.0469897099
322;2.5020875930786133;16.984;-0.0469897099;-0.045521281119
323;2.5111725330352783;16.972;-0.0469897099;-0.045521281119
324;2.5192134380340576;16.978;-0.0469897099;-0.0469897099
325;2.527209997177124;16.981;-0.0469897099;-0.045521281119
326;2.5352206230163574;16.969;-0.0469897099;-0.0469897099
327;2.543262481689453;16.979;-0.0469897099;-0.0469897099
