;Time;Thrust;BEM pressure;N2O pressure;N2OWeigth
0;0.0;0.006675999999999682;0.02612817173566151;9.749873920372195;0.29458678046373166
1;0.015386104583740234;0.007676000000000016;0.04274146012249824;9.785653274208423;0.29702057739420695
2;0.029454469680786133;0.006675999999999682;0.024617872791403594;9.749873920372195;0.30188817125514333
3;0.04380488395690918;0.007676000000000016;0.004983986516051031;9.749873920372195;0.30188817125514333
4;0.05794024467468262;0.007676000000000016;0.03972086223398241;9.753849404131776;0.29458678046373166
5;0.07204246520996094;0.007676000000000016;0.03216936751269306;9.749873920372195;0.29702057739420695
6;0.08608365058898926;0.007676000000000016;0.021597274902887764;9.749873920372195;0.3091895620465408
7;0.10028409957885742;0.006675999999999682;0.04576205801101396;9.753849404131776;0.3116233589770019
8;0.11453437805175781;0.006675999999999682;0.05029295484378771;9.737947469093452;0.3067557651160655
9;0.128692626953125;0.007676000000000016;0.01404578018159841;9.662413277661415;0.29945437432466804
10;0.14280486106872559;0.007676000000000016;0.027638470679919314;9.753849404131776;0.29458678046373166
11;0.15710806846618652;0.006675999999999682;0.03518996540120878;9.666388761420997;0.29945437432466804
12;0.17123651504516602;0.006675999999999682;0.03367966645695086;9.757824887891358;0.3116233589770019
13;0.18547892570495605;0.006675999999999682;0.024617872791403594;9.749873920372195;0.3091895620465408
14;0.1996462345123291;0.007676000000000016;0.03216936751269306;9.706143599016805;0.29702057739420695
15;0.2147812843322754;0.007676000000000016;0.024617872791403594;9.757824887891358;0.29458678046373166
16;0.2288367748260498;0.007676000000000016;0.012535481237340496;9.753849404131776;0.3067557651160655
17;0.2429039478302002;0.006675999999999682;0.02612817173566151;9.753849404131776;0.32379234362933573
18;0.25734734535217285;0.007676000000000016;0.024617872791403594;9.757824887891358;0.32622614055981103
19;0.27158474922180176;0.007676000000000016;0.012535481237340496;9.829383595563813;0.3091895620465408
20;0.28574681282043457;0.008675999999999906;0.02310757384714568;9.666388761420997;0.29945437432466804
21;0.29996705055236816;0.006675999999999682;0.030659068568435144;9.765775855410519;0.29458678046373166
22;0.31420040130615234;0.007676000000000016;0.00045308968327739674;9.753849404131776;0.31649095283793827
23;0.32836198806762695;0.007676000000000016;0.03367966645695086;9.749873920372195;0.32135854669887465
24;0.34242796897888184;0.007676000000000016;0.02914876962417723;9.686266180218901;0.3116233589770019
25;0.3566162586212158;0.007676000000000016;0.02914876962417723;9.753849404131776;0.3043219681856044
26;0.3708057403564453;0.008675999999999906;0.04727235695527188;9.753849404131776;0.3116233589770019
27;0.39403247833251953;0.006675999999999682;0.03821056328972461;9.745898436612615;0.32622614055981103
28;0.4082517623901367;0.007676000000000016;0.01102518229308258;9.686266180218901;0.3140571559074772
29;0.4223802089691162;0.006675999999999682;0.030659068568435144;9.757824887891358;0.3067557651160655
30;0.43651342391967773;0.006675999999999682;-0.004077807149496238;9.753849404131776;0.3091895620465408
31;0.45072293281555176;0.007676000000000016;0.021597274902887764;9.706143599016805;0.32135854669887465
32;0.46498537063598633;0.007676000000000016;0.02310757384714568;9.749873920372195;0.32622614055981103
33;0.47911858558654785;0.007676000000000016;0.030659068568435144;9.753849404131776;0.31649095283793827
34;0.4933619499206543;0.006675999999999682;0.024617872791403594;9.753849404131776;0.30188817125514333
35;0.5076150894165039;0.006675999999999682;0.05784444956507706;9.753849404131776;0.29215298353327057
36;0.5217862129211426;0.006675999999999682;0.027638470679919314;9.753849404131776;0.3116233589770019
37;0.5359199047088623;0.007676000000000016;0.03518996540120878;9.753849404131776;0.32622614055981103
38;0.5500369071960449;0.007676000000000016;0.009514883348824776;9.797579725487166;0.29702057739420695
39;0.5642414093017578;0.007676000000000016;0.03670026434546669;9.745898436612615;0.31649095283793827
40;0.578385591506958;0.007676000000000016;0.027638470679919314;9.666388761420997;0.34569651600354234
41;0.5925600528717041;0.007676000000000016;0.024617872791403594;9.757824887891358;0.27511640502000034
42;0.6067242622375488;0.007676000000000016;0.03367966645695086;9.729996501574291;0.25077843571533265
43;0.6209156513214111;0.007676000000000016;0.01102518229308258;9.666388761420997;0.2872853896723342
44;0.6351099014282227;0.007676000000000016;0.02914876962417723;9.753849404131776;0.31892474976841356
45;0.6493041515350342;0.007676000000000016;0.02310757384714568;9.757824887891358;0.34569651600354234
46;0.6634035110473633;0.007676000000000016;0.024617872791403594;9.753849404131776;0.2897191866027953
47;0.6819784641265869;0.007676000000000016;0.02914876962417723;9.714094566535968;0.2386094510629988
48;0.7005116939544678;0.006675999999999682;0.03821056328972461;9.749873920372195;0.32622614055981103
49;0.719085693359375;0.006675999999999682;0.03670026434546669;9.753849404131776;0.3091895620465408
50;0.7376518249511719;0.007676000000000016;0.03367966645695086;9.805530693006329;0.29458678046373166
51;0.7561600208282471;0.007676000000000016;0.03670026434546669;9.753849404131776;0.27755020195046143
52;0.7747821807861328;0.007676000000000016;0.02612817173566151;9.745898436612615;0.2653812172981276
53;0.7932519912719727;0.007676000000000016;0.03216936751269306;9.745898436612615;0.3335275313512085
54;0.8118710517883301;0.007676000000000016;0.03216936751269306;9.753849404131776;0.27511640502000034
55;0.8303532600402832;0.007676000000000016;0.01404578018159841;9.757824887891358;0.29215298353327057
56;0.8489432334899902;0.007676000000000016;0.02612817173566151;9.749873920372195;0.2824177958113978
57;0.8675975799560547;0.007676000000000016;0.021597274902887764;9.749873920372195;0.29702057739420695
58;0.886089563369751;0.006675999999999682;0.027638470679919314;9.658437793901834;0.27755020195046143
59;0.9046916961669922;0.006675999999999682;0.03518996540120878;9.670364245180577;0.3091895620465408
60;0.923203706741333;0.008675999999999906;0.02914876962417723;9.757824887891358;0.2848515927418731
61;0.9417457580566406;0.007676000000000016;0.02310757384714568;9.805530693006329;0.3067557651160655
62;0.9602348804473877;0.006675999999999682;0.04123116117824033;9.745898436612615;0.29458678046373166
63;0.9788961410522461;0.007676000000000016;0.018576677014372045;9.753849404131776;0.29458678046373166
64;0.9975090026855469;0.006675999999999682;0.030659068568435144;9.797579725487166;0.29945437432466804
65;1.0159811973571777;0.007676000000000016;0.08200923267320326;11.439454518194085;0.10961821374823444
66;1.0852227210998535;0.007676000000000016;0.5154650296752167;10.866984856814433;0.20210249710598305
67;1.0994532108306885;0.007676000000000016;0.3070437753676284;10.493289383413826;0.2678150142286029
68;1.1136155128479004;0.006675999999999682;0.2360597249875077;10.29451519543478;0.2824177958113978
69;1.1278889179229736;0.007676000000000016;0.18470956088273954;10.16332423136861;0.2824177958113978
70;1.1420981884002686;0.006675999999999682;0.16205507671887126;10.167299715128191;0.24104324799345989
71;1.156346321105957;0.007676000000000016;0.1469520872762924;10.020206816023698;0.27755020195046143
72;1.1706247329711914;0.007676000000000016;0.12278730416816619;10.004304880985375;0.3335275313512085
73;1.1931896209716797;0.007676000000000016;0.10919461366984523;9.972501010908728;0.3091895620465408
74;1.2075018882751465;0.007676000000000016;0.11825640733539255;9.992378429706632;0.3140571559074772
75;1.2217092514038086;0.005675999999999792;0.11674610839113464;9.948648108351241;0.3091895620465408
76;1.2371864318847656;0.007676000000000016;0.11976670627965041;9.90094230323627;0.3140571559074772
77;1.251340627670288;0.007676000000000016;0.13033879888945565;10.024182299783279;0.34082892214260596
78;1.2655022144317627;0.006675999999999682;0.13940059255500298;10.040084234821602;0.3067557651160655
79;1.2796893119812012;0.006675999999999682;0.16507567460738704;10.055986169859926;0.2872853896723342
80;1.293959617614746;0.007676000000000016;0.15148298410906608;9.980451978427888;0.3140571559074772
81;1.3082449436187744;0.007676000000000016;0.1363799946664872;10.095741007455736;0.30188817125514333
82;1.3224472999572754;0.005675999999999792;0.1605447777746134;10.135495845051544;0.24104324799345989
83;1.3367466926574707;0.007676000000000016;0.19981255032531842;10.008280364744955;0.24104324799345989
84;1.3509888648986816;0.007676000000000016;0.24361121970879712;10.020206816023698;0.21913907561925328
85;1.3652853965759277;0.007676000000000016;0.3025128785348547;9.984427462187469;0.1899335124536492
86;1.3795156478881836;0.006675999999999682;0.40370290780013307;9.924795205793755;0.20697009096691943
87;1.393702745437622;0.007676000000000016;0.5320783180620534;9.845285530602137;0.18506591859271282
88;1.408154010772705;0.006675999999999682;0.7269068818713208;9.749873920372195;0.1631617462185062
89;1.4225454330444336;0.007676000000000016;0.9383487340674249;9.567001667431473;0.18263212166225173
90;1.4367635250091553;0.006675999999999682;1.1996304514240392;9.567001667431473;0.19480110631458558
91;1.4510090351104736;0.007676000000000016;1.4880975497772955;9.431835219605722;0.22400666948018966
92;1.465299367904663;0.007676000000000016;1.7810955449633257;9.372202963212008;0.2653812172981276
93;1.4794766902923584;0.007676000000000016;2.0499287570412292;9.38412941449075;0.2605136234371912
94;1.4936749935150146;0.007676000000000016;2.397297514220543;9.201257161550028;0.2386094510629988
95;1.5081491470336914;0.007676000000000016;2.676702818908252;9.189330710271287;0.24104324799345989
96;1.522343635559082;0.007676000000000016;2.983293504592603;9.089943616281763;0.2629474203676665
97;1.5365760326385498;0.007676000000000016;3.2702503040016015;9.085968132522183;0.29458678046373166
98;1.5509159564971924;0.008675999999999906;3.540593815023763;8.911046847100621;0.2848515927418731
99;1.5652096271514893;0.008675999999999906;3.812447624990183;8.982605554773079;0.2580798265067301
100;1.579378604888916;0.008675999999999906;4.182470866333365;8.891169428302717;0.27024881115906396
101;1.6009647846221924;0.007676000000000016;4.437711387912948;8.489645568585045;0.3822034699605581
102;1.6226866245269775;0.008675999999999906;4.629519353833699;8.398209442114684;0.39193865768241665
103;1.6369037628173828;0.008675999999999906;4.828878814475741;8.314724283163486;0.3749020791691464
104;1.6511502265930176;0.008675999999999906;4.984439605734303;8.354479120759294;0.3529979067949398
105;1.6654624938964844;0.008675999999999906;5.171716674822281;8.302797831884742;0.3749020791691464
106;1.6796479225158691;0.008675999999999906;5.349931950244712;8.215337189173962;0.39680625154335303
107;1.6938591003417969;0.008675999999999906;5.494920648893469;8.219312672933544;0.3773358760996217
108;1.70823335647583;0.007676000000000016;5.63688874965371;8.223288156693124;0.3359613282816838
109;1.7224147319793701;0.007676000000000016;5.763753860971373;8.131852030222763;0.3359613282816838
110;1.7366681098937988;0.008675999999999906;5.849840900794072;8.036440419992822;0.3554317037254151
111;1.7509562969207764;0.008675999999999906;5.9827472078887665;8.028489452473659;0.3554317037254151
112;1.7652387619018555;0.006675999999999682;6.071854845599981;8.040415903752402;0.3602992975863515
113;1.781141996383667;0.007676000000000016;6.145859493868618;7.952955261041621;0.34569651600354234
114;1.7998239994049072;0.008675999999999906;6.233456832635575;7.952955261041621;0.3554317037254151
115;1.818485975265503;0.008675999999999906;6.349749851343432;7.8535681670520985;0.3529979067949398
116;1.8369669914245605;0.007676000000000016;6.4116721080580055;7.770083008100899;0.3335275313512085
117;1.8556060791015625;0.008675999999999906;6.485676756326642;7.7740584918604805;0.34813031293401764
118;1.8742132186889648;0.008675999999999906;6.517393034156058;7.770083008100899;0.32622614055981103
119;1.8928465843200684;0.007676000000000016;6.570253497205084;7.678646881630538;0.3091895620465408
120;1.9115104675292969;0.007676000000000016;6.591397682424694;7.682622365390119;0.29702057739420695
121;1.9302055835723877;0.008675999999999906;6.608010970811531;7.503725596208978;0.3310937344207474
122;1.948840618133545;0.008675999999999906;6.606500671867273;7.503725596208978;0.3602992975863515
123;1.9674937725067139;0.008675999999999906;6.615562465532821;7.499750112449397;0.34813031293401764
124;1.9860708713531494;0.007676000000000016;6.615562465532821;7.408313985979036;0.3383951252121449
125;2.0047600269317627;0.008675999999999906;6.6321757539196575;7.412289469738617;0.34326271907308126
126;2.023452043533325;0.008675999999999906;6.604990372923015;7.316877859508675;0.37246828223868533
127;2.042125940322876;0.007676000000000016;6.597438878201726;7.408313985979036;0.3505641098644787
128;2.060709238052368;0.007676000000000016;6.62311396025411;7.312902375749094;0.32622614055981103
129;2.079268217086792;0.006675999999999682;6.568743198260826;7.233392700557475;0.34326271907308126
130;2.097830295562744;0.008675999999999906;6.571763796149342;7.225441733038314;0.3529979067949398
131;2.1164214611053467;0.008675999999999906;6.509841539434769;7.1658094766446006;0.3529979067949398
132;2.135101556777954;0.008675999999999906;6.526454827821605;7.145932057846696;0.34326271907308126
133;2.1538305282592773;0.008675999999999906;6.4871870552709;7.118103671529629;0.3505641098644787
134;2.1723668575286865;0.007676000000000016;6.475104663716837;7.0544959313763345;0.34326271907308126
135;2.1910877227783203;0.008675999999999906;6.449429581664453;7.0544959313763345;0.31892474976841356
136;2.2097818851470947;0.007676000000000016;6.435836891166132;6.959084321146393;0.2848515927418731
137;2.2284278869628906;0.007676000000000016;6.378445531284332;6.879574645954774;0.29458678046373166
138;2.249833822250366;0.008675999999999906;6.395058819671169;6.959084321146393;0.29458678046373166
139;2.268673896789551;0.007676000000000016;6.348239552399175;7.050520447616754;0.27755020195046143
140;2.2873902320861816;0.006675999999999682;6.296889388294407;6.971010772425135;0.2824177958113978
141;2.3059520721435547;0.008675999999999906;6.274234904130538;6.736457230609862;0.2799839988809367
142;2.3245792388916016;0.007676000000000016;6.263662811520733;6.688751425494891;0.27511640502000034
143;2.343106508255005;0.007676000000000016;6.225905337914286;6.871623678435612;0.2678150142286029
144;2.3617124557495117;0.008675999999999906;6.182106668530807;6.879574645954774;0.25564602957626903
145;2.3803765773773193;0.008675999999999906;6.142838895980102;6.51383014007333;0.24591084185439627
146;2.4106431007385254;0.008675999999999906;6.079406340321271;6.60129078278411;0.2605136234371912
147;2.42927622795105;0.008675999999999906;6.068834247711465;6.692726909254471;0.2629474203676665
148;2.4478092193603516;0.008675999999999906;6.0114428878296655;6.60129078278411;0.27755020195046143
149;2.4664344787597656;0.008675999999999906;6.026545877272245;6.422394013602969;0.2848515927418731
150;2.482555627822876;0.007676000000000016;5.976706012111735;6.577437880226625;0.29945437432466804
151;2.4967758655548096;0.007676000000000016;5.966133919501929;6.60129078278411;0.2824177958113978
152;2.510996103286743;0.007676000000000016;5.9178043532856766;6.60129078278411;0.27268260808953926
153;2.5253825187683105;0.008675999999999906;5.923845549062708;6.326982403373027;0.2897191866027953
154;2.5395708084106445;0.008675999999999906;5.90119106489884;6.33890885465177;0.3067557651160655
155;2.553828001022339;0.007676000000000016;5.857392395515362;6.462148851198778;0.29945437432466804
156;2.568119525909424;0.008675999999999906;5.858902694459619;6.501903688794587;0.29702057739420695
157;2.5822436809539795;0.008675999999999906;5.827186416630203;6.243497244421828;0.2848515927418731
158;2.596471071243286;0.007676000000000016;5.780367149358209;6.315055952094284;0.29945437432466804
159;2.610774517059326;0.007676000000000016;5.781877448302467;6.430344981122131;0.3383951252121449
160;2.6250295639038086;0.007676000000000016;5.76526415991563;6.33890885465177;0.34569651600354234
161;2.6392288208007812;0.007676000000000016;5.7516714694173094;6.152061117951467;0.31892474976841356
162;2.653480291366577;0.007676000000000016;5.7410993768075045;6.223619825623923;0.3091895620465408
163;2.667757511138916;0.007676000000000016;5.692769810591252;6.422394013602969;0.3140571559074772
164;2.682015895843506;0.008675999999999906;5.6731359243159;6.227595309383504;0.32622614055981103
165;2.6962220668792725;0.008675999999999906;5.659543233817579;6.064600475240686;0.32379234362933573
166;2.7105205059051514;0.008675999999999906;5.627826955988163;6.231570793143085;0.3140571559074772
167;2.7247867584228516;0.008675999999999906;5.644440244375;6.148085634191886;0.3091895620465408
168;2.73895001411438;0.007676000000000016;5.597620977103005;5.973164348770325;0.3286599374902721
169;2.7531394958496094;0.007676000000000016;5.5643944003293315;6.060624991481106;0.32379234362933573
170;2.767427682876587;0.007676000000000016;5.579497389771911;6.144110150432305;0.3091895620465408
171;2.7816970348358154;0.008675999999999906;5.525126627778627;5.925458543655354;0.3335275313512085
172;2.804661989212036;0.007676000000000016;5.5100236383360475;6.152061117951467;0.3335275313512085
173;2.8188650608062744;0.008675999999999906;5.452632278454248;6.064600475240686;0.32379234362933573
174;2.83298659324646;0.008675999999999906;5.470755865785343;5.893654673578707;0.3140571559074772
175;2.8472647666931152;0.007676000000000016;5.437529289011669;6.068575959000268;0.30188817125514333
176;2.8614540100097656;0.007676000000000016;5.428467495346122;5.973164348770325;0.3067557651160655
177;2.875676393508911;0.008675999999999906;5.407323310126511;5.794267579589184;0.3116233589770019
178;2.8898849487304688;0.007676000000000016;5.378627630185612;5.985090800049068;0.32135854669887465
179;2.9040842056274414;0.008675999999999906;5.345401053411938;5.877752738540384;0.3116233589770019
180;2.9183523654937744;0.007676000000000016;5.3695658365200645;5.790292095829604;0.3091895620465408
181;2.932586669921875;0.007676000000000016;5.318215672415296;5.881728222299964;0.32379234362933573
182;2.9468019008636475;0.007676000000000016;5.325767167136585;5.798243063348766;0.31649095283793827
183;2.960998296737671;0.008675999999999906;5.298581786139944;5.7068069368784045;0.32622614055981103
184;2.9753096103668213;0.007676000000000016;5.2759273019760755;5.893654673578707;0.32622614055981103
185;2.9894967079162598;0.008675999999999906;5.218535942094276;5.7068069368784045;0.31892474976841356
186;3.0036942958831787;0.008675999999999906;5.236659529425371;5.702831453118823;0.31892474976841356
187;3.0180766582489014;0.007676000000000016;5.232128632592596;5.762463709512537;0.3091895620465408
188;3.0322697162628174;0.008675999999999906;5.229108034704081;5.519959200178101;0.29215298353327057
189;3.046537160873413;0.006675999999999682;5.2109844473729865;5.698855969359243;0.30188817125514333
190;3.0608253479003906;0.008675999999999906;5.149062190658412;5.6471746804846905;0.3116233589770019
191;3.0750937461853027;0.007676000000000016;5.121876809661771;5.547787586495168;0.3116233589770019
192;3.0892109870910645;0.007676000000000016;5.121876809661771;5.7068069368784045;0.29702057739420695
193;3.1034352779388428;0.007676000000000016;5.112815015996223;5.523934683937682;0.2872853896723342
194;3.117743492126465;0.008675999999999906;5.093181129720871;5.619346294167624;0.29702057739420695
195;3.131999969482422;0.007676000000000016;5.065995748724229;5.523934683937682;0.3091895620465408
196;3.146266222000122;0.007676000000000016;5.069016346612745;5.432498557467321;0.30188817125514333
197;3.1605124473571777;0.008675999999999906;5.031258873006298;5.623321777927205;0.2629474203676665
198;3.174790859222412;0.007676000000000016;5.005583790953914;5.376841784833188;0.2653812172981276
