;Time;Thrust;BEM pressure;N2O pressure;N2OWeigth
0;0.0;-0.0009510000000000074;-0.0006524491439194036;18.930208110895553;0.7274886742828528
1;0.015650033950805664;-0.014950999999999992;0.005388746633112146;18.91828165961681;0.7080182988391144
2;0.0301210880279541;-0.013950999999999991;-0.006693644920950946;18.930208110895553;0.7128858927000472
3;0.0446019172668457;-0.009950999999999988;-0.008203943865208833;18.854673919463515;0.7226210804219164
4;0.05919075012207031;-0.01295099999999999;-0.017265737530756154;18.862624886982676;0.7128858927000472
5;0.07378983497619629;-0.013950999999999991;0.005388746633112146;18.930208110895553;0.7104520957695826
6;0.08844161033630371;-0.015950999999999993;-0.006693644920950946;18.97791391601052;0.7201872834914482
7;0.10319876670837402;-0.013950999999999991;-0.002162748088177291;18.878526822021;0.7201872834914482
8;0.11783957481384277;-0.014950999999999992;0.005388746633112146;18.898404240818905;0.7153196896305154
9;0.1325225830078125;-0.01195099999999999;0.0038784476888542585;18.938159078414714;0.7201872834914482
10;0.14720559120178223;-0.015950999999999993;-0.011224541753724608;18.934183594655135;0.7274886742828528
11;0.16207432746887207;-0.010950999999999989;-0.006693644920950946;18.92623262713597;0.7055845019086462
12;0.17697644233703613;-0.013950999999999991;0.005388746633112146;18.934183594655135;0.7080182988391144
13;0.1919095516204834;-0.013950999999999991;0.0038784476888542585;18.862624886982676;0.7274886742828528
14;0.2068004608154297;-0.010950999999999989;-0.00971424280946672;18.850698435703933;0.7226210804219164
15;0.22175931930541992;-0.014950999999999992;0.0008578498003384838;18.950085529693457;0.7250548773523846
16;0.23677825927734375;-0.009950999999999988;-0.00971424280946672;18.858649403223097;0.7201872834914482
17;0.2517690658569336;-0.010950999999999989;0.014450540298659463;18.942134562174296;0.7201872834914482
18;0.2666962146759033;-0.01195099999999999;0.0038784476888542585;18.950085529693457;0.7323562681437856
19;0.28182506561279297;-0.016950999999999994;-0.021796634363529813;18.934183594655135;0.7274886742828528
20;0.29692506790161133;-0.01295099999999999;-0.26344446544479166;18.870575854501837;0.7104520957695826
21;0.3119940757751465;-0.01195099999999999;-0.021796634363529813;18.958036497212618;0.7104520957695826
22;0.32696986198425293;-0.010950999999999989;-0.03085842802907713;18.87455133826142;0.7250548773523846
23;0.3421339988708496;-0.01195099999999999;-0.015755438586498267;18.965987464731782;0.7323562681437856
24;0.3571438789367676;-0.01295099999999999;0.047677117072332964;18.898404240818905;0.7104520957695826
25;0.372586727142334;-0.009950999999999988;0.08090369384600646;18.985864883529686;0.7031507049781816
26;0.3876378536224365;-0.009950999999999988;0.006899045577370033;18.96996294849136;0.7250548773523846
27;0.4027707576751709;-0.01295099999999999;0.12017146639671153;19.025619721125494;0.7226210804219164
28;0.41790771484375;-0.013950999999999991;0.04465651918381719;18.958036497212618;0.7055845019086462
29;0.4330728054046631;-0.010950999999999989;0.0552286117936224;19.069350042480885;0.7201872834914482
30;0.4480926990509033;-0.01195099999999999;-0.06559530374700852;19.09717842879795;0.7226210804219164
31;0.46335363388061523;-0.010950999999999989;0.0552286117936224;19.09320294503837;0.7226210804219164
32;0.47855448722839355;-0.010950999999999989;0.0658007044034276;19.065374558721302;0.7128858927000472
33;0.500138521194458;-0.016950999999999994;0.09600668328858533;19.121031331355436;0.7201872834914482
34;0.5153124332427979;-0.008950999999999987;0.08090369384600646;19.128982298874597;0.7177534865609836
35;0.5304841995239258;-0.01195099999999999;0.05371831284936451;19.125006815115018;0.7080182988391144
36;0.5457713603973389;-0.007950999999999986;0.02351233396420678;19.121031331355436;0.7201872834914482
37;0.5610620975494385;-0.013950999999999991;0.10959937378690632;19.04947262368298;0.7226210804219164
38;0.5764191150665283;-0.014950999999999992;0.03559472551826988;18.993815851048847;0.7153196896305154
39;0.5917119979858398;-0.010950999999999989;0.03861532340678564;19.001766818568008;0.7274886742828528
40;0.606971263885498;-0.008950999999999987;-0.02783783014056136;18.934183594655135;0.7128858927000472
41;0.6223621368408203;-0.015950999999999993;-0.018776036475014038;19.0454971399234;0.7323562681437856
42;0.6378738880157471;-0.01195099999999999;0.03559472551826988;19.04947262368298;0.7226210804219164
43;0.654090166091919;-0.008950999999999987;0.05975950862639606;19.05742359120214;0.6934155172563123
44;0.6743667125701904;-0.013950999999999991;0.04918741601659085;18.99779133480843;0.7104520957695826
45;0.6944277286529541;-0.014950999999999992;0.07335219912471704;19.105129396317114;0.7177534865609836
46;0.7146468162536621;-0.010950999999999989;0.05069771496084874;19.105129396317114;0.7201872834914482
47;0.7349467277526855;-0.015950999999999993;-0.024817232252045587;19.109104880076693;0.7080182988391144
48;0.7551746368408203;-0.008950999999999987;-0.015755438586498267;19.13295778263418;0.7226210804219164
49;0.7755506038665771;-0.016950999999999994;0.08996548751155378;19.05742359120214;0.7128858927000472
50;0.7960405349731445;-0.010950999999999989;0.04616681812807508;19.13295778263418;0.7177534865609836
51;0.8164665699005127;-0.010950999999999989;0.09298608540006956;19.148859717672504;0.7055845019086462
52;0.8369135856628418;-0.009950999999999988;0.07033160123620126;19.16873713647041;0.7153196896305154
53;0.857600212097168;-0.009950999999999988;0.1458465484490956;19.109104880076693;0.7226210804219164
54;0.8781673908233643;-0.014950999999999992;0.10657877589839054;19.105129396317114;0.7226210804219164
55;0.898604154586792;-0.01295099999999999;-0.02632753119630347;19.09320294503837;0.7250548773523846
56;0.9190280437469482;-0.01195099999999999;0.026532931852722555;19.121031331355436;0.7177534865609836
57;0.9394729137420654;-0.007950999999999986;-0.0233069333077877;19.125006815115018;0.7226210804219164
58;0.9601948261260986;-0.015950999999999993;0.011429942410143688;19.14090875015334;0.7347900650742538
59;0.9809250831604004;-0.016950999999999994;0.13829505372780615;19.117055847595854;0.7226210804219164
60;1.0014798641204834;-0.013950999999999991;0.11413027061967998;19.172712620229987;0.7250548773523846
61;1.0224907398223877;-0.009950999999999988;0.06731100334768549;19.164761652710826;0.7250548773523846
62;1.0432229042053223;-0.008950999999999987;0.12470236322948516;19.2124674578258;0.7153196896305154
63;1.0637776851654053;-0.008950999999999987;0.14735684739335347;19.240295844142864;0.7299224712133174
64;1.0844066143035889;-0.01295099999999999;0.2107894030521847;19.27209971421951;0.7226210804219164
65;1.1050796508789062;-0.014950999999999992;0.12923326006225883;19.18463907150873;0.7080182988391144
66;1.1259074211120605;-0.010950999999999989;0.17001133155722178;19.295952616776997;0.7201872834914482
67;1.1467514038085938;-0.009950999999999988;0.06278010651491184;19.299928100536576;0.7153196896305154
68;1.1677002906799316;-0.015950999999999993;0.2364644851045688;19.31185455181532;0.7226210804219164
69;1.1884183883666992;-0.010950999999999989;0.0778830959574907;19.319805519334484;0.7299224712133174
70;1.2091381549835205;-0.01195099999999999;0.15037744528186925;19.327756486853644;0.7177534865609836
71;1.2299892902374268;-0.017950999999999995;0.026532931852722555;19.240295844142864;0.7177534865609836
72;1.2509441375732422;-0.013950999999999991;0.27271165976675804;19.260173262940768;0.7299224712133174
73;1.2720890045166016;-0.013950999999999991;0.2122997019964426;19.240295844142864;0.7250548773523846
74;1.2930450439453125;-0.010950999999999989;0.1564186410589008;19.303903584296158;0.7080182988391144
75;1.3139710426330566;-0.009950999999999988;0.11413027061967998;19.204516490306634;0.7153196896305154
76;1.3348209857940674;-0.010950999999999989;0.07033160123620126;19.101153912557532;0.7177534865609836
77;1.356022834777832;-0.01195099999999999;0.1443362495048377;19.117055847595854;0.7201872834914482
78;1.3770666122436523;-0.013950999999999991;0.08694488962303801;19.121031331355436;0.7347900650742538
79;1.4009826183319092;-0.013950999999999991;0.05673891073788029;19.085251977519206;0.7153196896305154
80;1.4223895072937012;-0.008950999999999987;0.13527445583929038;19.18463907150873;0.7201872834914482
81;1.4433386325836182;-0.01195099999999999;0.2122997019964426;19.22041842534496;0.7201872834914482
82;1.4617712497711182;-0.013950999999999991;0.12319206428522728;19.240295844142864;0.7299224712133174
83;1.4776904582977295;-0.009950999999999988;0.166990733668706;19.200541006547056;0.7201872834914482
84;1.4936103820800781;-0.010950999999999989;0.18511432099980063;19.291977133017415;0.7104520957695826
85;1.509599208831787;-0.0009510000000000074;0.0038784476888542585;19.999613242222818;0.7226210804219164
86;1.5638210773468018;-0.009950999999999988;0.4267621520810625;19.928054534550363;0.7396576589351866
87;1.58048415184021;-0.008950999999999987;0.30895883442894734;19.645795187620116;0.7177534865609836
88;1.5966930389404297;-0.006950999999999985;0.25005717560288976;19.53050615859227;0.6861141264649113
89;1.6128180027008057;-0.010950999999999989;0.2545880724356634;19.490751320996463;0.7031507049781816
90;1.6288337707519531;-0.010950999999999989;0.23797478404882666;19.482800353477298;0.6982831111172452
91;1.6448726654052734;-0.006950999999999985;0.22740269143902148;19.411241645804843;0.7250548773523846
92;1.6608307361602783;-0.009950999999999988;0.21683059882921624;19.514604223553945;0.6958493141867805
93;1.6769726276397705;-0.01195099999999999;0.22589239249476356;19.490751320996463;0.6690775479516411
94;1.6931655406951904;-0.009950999999999988;0.26516016504546863;19.49472680475604;0.6374381878555688
95;1.7092347145080566;4.899999999999349e-05;0.327082421760042;19.514604223553945;0.6277030001336996
96;1.7254295349121094;0.042049;0.5143594908480198;19.431119064602747;0.6617761571602401
97;1.7415854930877686;0.137049;0.8330325680864339;19.244271327902446;0.688547923395376
98;1.7578785419464111;0.317049;1.41449766162572;19.23632036038328;0.6958493141867805
99;1.7739942073822021;0.6440490000000001;2.1968325147513053;19.13295778263418;0.7153196896305154
100;1.7902555465698242;1.146049;3.0984809844732637;18.958036497212618;0.7031507049781816
101;1.8065552711486816;1.7860490000000002;3.986536763696901;18.66782618276321;0.5911960461766945
102;1.8228483200073242;2.304049;4.974272273241559;18.75528682547399;0.6666437510211729
103;1.8390402793884277;2.703049;5.9348224017895745;18.49688038110123;0.9148910379288182
104;1.8553483486175537;3.086049;6.730749945413481;18.389542319592547;0.905155850206949
105;1.8716223239898682;3.530049;7.143061557195884;18.27027780680512;0.8613475054585429
106;1.887998104095459;3.788049;7.217066205464521;18.075479102585657;0.9075896471374172
107;1.9042901992797852;3.745049;7.285029657956126;17.96416555731739;0.9976401335646976
108;1.9207229614257812;3.517049;7.511574499594809;17.79321975565541;0.9392290072334895
109;1.9370248317718506;3.479049;7.277478163234836;17.693832661665887;0.7323562681437856
110;1.9534249305725098;3.526049;7.149102752972915;17.48710750616768;0.6082326246899648
111;1.9697649478912354;3.434049;6.884800437727786;17.383744928418576;0.5449539044978202
112;1.9924888610839844;3.242049;7.099262887812405;17.18497074043953;0.6252692032032314
113;2.0088655948638916;3.2780489999999998;6.871207747229464;17.157142354122463;0.6982831111172452
114;2.025458812713623;3.442049;6.887821035616302;16.862956555913478;0.793201191405462
115;2.042001485824585;3.416049;6.969377178606227;16.83512816959641;0.8686488962499439
116;2.0586466789245605;3.320049;6.656745297144845;16.711888173049402;0.9027220532764808
117;2.0751235485076904;3.144049;6.691482172862776;16.425653342359574;0.7372238620047185
118;2.0916523933410645;3.1290489999999997;6.543472876325503;16.421677858599995;0.5790270615243571
119;2.1080613136291504;3.171049;6.532900783715698;16.21892818686137;0.5084469505408116
120;2.1246113777160645;3.182049;6.44530344494874;16.111590125352684;0.4719399965838065
121;2.1410553455352783;3.1410489999999998;6.415097466063583;15.916791421133217;0.6301367970641678
122;2.15771222114563;3.083049;6.392442981899714;15.84523271346076;0.793201191405462
123;2.174154043197632;3.039049;6.339582518850689;15.721992716913752;0.9294938195116202
124;2.1906380653381348;3.069049;6.235371891696894;15.551046915251773;0.9586993826772243
125;2.207369089126587;3.056049;6.200635015978963;15.479488207579315;0.8491785208062055
126;2.2239320278167725;2.991049;6.061687513107238;15.145547571774518;0.6909817203258442
127;2.246189832687378;2.936049;6.1402230582086474;15.054111445304159;0.6350043909251006
128;2.2628660202026367;2.898049;5.989193163782859;14.954724351314635;0.5838946553852935
129;2.2795238494873047;2.8910489999999998;5.922740010235512;14.791729517171817;0.6739451418125739
130;2.2963807582855225;2.893049;5.891023732406096;14.696317906941875;0.7883335975445291
131;2.3131508827209473;2.884049;5.875920742963517;14.608857264231096;0.8954206624850798
132;2.329892635345459;2.834049;5.736973240091792;14.521396621520315;0.8929868655546152
133;2.3466954231262207;2.812049;5.782282208419528;14.429960495049954;0.800502582196863
134;2.3634305000305176;2.787049;5.6644788907674135;14.342499852339174;0.7542604405179887
135;2.3801443576812744;2.763049;5.629742015049482;14.15167663187929;0.6666437510211729
136;2.3969485759735107;2.740049;5.611618427718387;14.115897278043061;0.6617761571602401
137;2.413654327392578;2.7340489999999997;5.598025737220066;13.980730830217311;0.6301367970641678
138;2.430363416671753;2.685049;5.55271676889233;13.80183406103617;0.7031507049781816
139;2.4492132663726807;2.662049;5.4983460068990455;13.754128255921199;0.7980687852663984
140;2.4661242961883545;2.667049;5.465119430125372;13.706422450806228;0.9173248348592828
141;2.482898235321045;2.6290489999999997;5.382052988191188;13.527525681625086;0.9075896471374172
142;2.4997291564941406;2.626049;5.454547337515567;13.495721811548439;0.815105363779665
143;2.5165891647338867;2.598049;5.297476247312747;13.392359233799334;0.7153196896305154
144;2.5357470512390137;2.579049;5.261229072650558;13.261168269733165;0.5741594676634243
145;2.555065870285034;2.547049;5.234043691653915;13.169732143262804;0.5717256707329561
146;2.574249744415283;2.5160489999999998;5.226492196932626;12.990835374081662;0.5984974369680955
147;2.5935158729553223;2.518049;5.114730075057542;12.899399247611301;0.7055845019086462
148;2.612780809402466;2.486049;5.010519447903748;12.80796312114094;0.8443109269452727
149;2.632126808166504;2.448049;5.0437460246774215;12.716526994670579;0.7956349883359302
150;2.651442766189575;2.432049;4.942555995412143;12.573409579325666;0.7274886742828528
151;2.6708197593688965;2.422049;4.935004500690854;12.525703774210696;0.6106664216204294
152;2.6901934146881104;2.3870489999999998;4.808139389373191;12.36668442382746;0.5644242799415551
153;2.7097933292388916;2.368049;4.821732079871513;12.346807005029554;0.5960636400376274
154;2.729302406311035;2.334049;4.783974606265065;12.163934752088831;0.7347900650742538
155;2.748833417892456;2.312049;4.61633142345244;11.992988950426852;0.8589137085280747
156;2.7687814235687256;2.289049;4.657109494947403;11.89757734019691;0.8418771300148045
157;2.7884840965270996;2.261049;4.664660989668692;11.89757734019691;0.7445252527961195
158;2.8081412315368652;2.235049;4.595187238232829;11.758435408611579;0.6204016093422986
159;2.827843189239502;2.245049;4.595187238232829;11.722656054775351;0.5668580768720233
160;2.8475420475006104;2.194049;4.50910019841013;11.54375928559421;0.5838946553852935
161;2.867259979248047;2.178049;4.48040451846923;11.515930899277143;0.6788127356735103
162;2.8871610164642334;2.192049;4.398848375479305;11.364862516413067;0.793201191405462
163;2.906951665878296;2.105049;4.3656217987056305;11.273426389942706;0.8029363791273312
164;2.9267687797546387;2.127049;4.379214489203952;11.170063812193604;0.7299224712133174
165;2.9465415477752686;2.090049;4.231205192666679;11.011044461810366;0.6009312338985637
166;2.966418743133545;2.042049;4.232715491610937;11.015019945569948;0.5790270615243571
167;2.9864115715026855;2.0440490000000002;4.202509512725779;10.915632851580424;0.5692918738024915
168;3.0064194202423096;2.036049;4.176834430673395;10.824196725110063;0.5765932645938925
169;3.0265302658081055;2.042049;4.145118152843979;10.728785114880122;0.6520409694383709
170;3.0466883182525635;1.994049;4.126994565512884;10.645299955928923;0.6715113448821093
171;3.066868305206299;1.961049;4.015232443637801;10.561814796977723;0.6666437510211729
172;3.0870702266693115;1.9550490000000003;3.9744543721428376;10.466403186747781;0.6057988277594966
173;3.1073191165924072;1.9400490000000001;4.039397226745927;10.37496706027742;0.5790270615243571
174;3.1276471614837646;1.8980489999999999;3.8702437449890437;10.20004577485586;0.5230497321236136
175;3.147965908050537;1.8750490000000002;3.8702437449890437;10.192094807336698;0.5376525137064192
176;3.1684110164642334;1.845049;3.7947287977761492;10.017173521915138;0.5887622492462263
177;3.1888270378112793;1.817049;3.7282756442288023;9.921761911685195;0.6593423602297719
178;3.2092819213867188;1.8030490000000001;3.7539507262811864;9.830325785214834;0.7007169080477134
179;3.229771852493286;1.796049;3.6693739854027445;9.826350301455253;0.6155340154813658
180;3.2502856254577637;1.7940490000000002;3.6557812949044237;9.738889658744474;0.5376525137064192
181;3.2708585262298584;1.7980490000000002;3.589328141357077;9.651429016033694;0.5376525137064192
182;3.2914695739746094;1.747049;3.625575316019266;9.559992889563333;0.5473877014282849
183;3.3120787143707275;1.7420490000000002;3.554591265639145;9.38109612038219;0.6155340154813658
184;3.3326165676116943;1.7090489999999998;3.554591265639145;9.389047087901353;0.6544747663688391
185;3.3532073497772217;1.6970490000000003;3.435277649042772;9.293635477671412;0.7007169080477134
186;3.3741323947906494;1.688049;3.462463030039414;9.226052253758535;0.5717256707329561
187;3.394822120666504;1.651049;3.4700145247607037;9.106787740971107;0.5303511229150146
188;3.4155213832855225;1.6480489999999999;3.4065819691018726;9.019327098260328;0.4962779658884777
189;3.43630313873291;1.6450490000000002;3.3537215060528465;9.011376130741166;0.5619904830110869
190;3.457111120223999;1.619049;3.309922836669368;8.927890971789967;0.6179678124118304
191;3.47786808013916;1.579049;3.1981607147942843;8.844405812838767;0.6520409694383709
192;3.505415916442871;1.539049;3.2193049000138947;8.669484527417207;0.5984974369680955
193;3.526373863220215;1.5400490000000002;3.1800371274631893;8.63768065734056;0.5571228891501541
194;3.5473639965057373;1.522049;3.175506230630416;8.482636790716905;0.520615935193149
195;3.5684688091278076;1.482049;3.106032479194553;8.566121949668103;0.5571228891501541
196;3.5897417068481445;1.470049;3.096970685529006;8.387225180486963;0.6131002185508976
197;3.610804557800293;1.482049;3.029007233037401;8.395176148006124;0.6447395786469698
198;3.632025718688965;1.4550489999999998;3.066764706643848;8.295789054016602;0.6836803295344431
199;3.653090476989746;1.4680490000000002;3.0063527488735327;8.208328411305821;0.639871984786037
200;3.6741323471069336;1.4310490000000002;2.9278172037721224;8.021480674605519;0.5984974369680955
201;3.6952273845672607;1.4230490000000002;2.9021421217197383;8.025456158365099;0.5571228891501541
202;3.716358184814453;1.4280490000000001;2.9534922858245065;7.934020031894738;0.5692918738024915
203;3.737675428390503;1.388049;2.8749567407230963;7.846559389183958;0.6350043909251006
204;3.7589211463928223;1.369049;2.814544782952781;7.755123262713597;0.6617761571602401
205;3.780221939086914;1.3710490000000002;2.7692358146250444;7.699466490079463;0.6739451418125739
206;3.801622152328491;1.356049;2.7949108966774285;7.6716381037623975;0.647173375577438
207;3.8228759765625;1.3590490000000002;2.717885650520276;7.667662620002816;0.5814608584548253
208;3.8441388607025146;1.332049;2.6771075790253134;7.488765850821675;0.5984974369680955
