;Time;Thrust;BEM pressure;N2O pressure;N2OWeigth
0;0.0;-2011;-167;-918;19762
1;0.015406608581542969;-2012;-166;-918;19751
2;0.029600143432617188;-2012;-166;-918;19752
3;0.044025421142578125;-2012;-167;-919;19752
4;0.05953502655029297;-2012;-164;-919;19754
5;0.07382416725158691;-2011;-166;-919;19755
6;0.08824753761291504;-2012;-164;-919;19750
7;0.10246992111206055;-2012;-166;-920;19756
8;0.11670708656311035;-2011;-166;-918;19754
9;0.13098955154418945;-2011;-166;-920;19754
10;0.14517998695373535;-2012;-164;-919;19754
11;0.1594994068145752;-2012;-165;-918;19768
12;0.17377781867980957;-2012;-166;-920;19755
13;0.1882030963897705;-2012;-166;-919;19755
14;0.2024092674255371;-2012;-166;-918;19753
15;0.21665453910827637;-2012;-165;-918;19773
16;0.23088693618774414;-2010;-164;-919;19762
17;0.24511027336120605;-2012;-166;-920;19765
18;0.259326696395874;-2012;-165;-920;19760
19;0.27372121810913086;-2012;-164;-919;19761
20;0.28800225257873535;-2012;-166;-920;19749
21;0.3021879196166992;-2012;-166;-919;19760
22;0.31646013259887695;-2012;-165;-919;19755
23;0.3307332992553711;-2012;-163;-919;19756
24;0.3449828624725342;-2012;-167;-920;19756
25;0.35927915573120117;-2012;-166;-919;19752
26;0.3735203742980957;-2011;-165;-919;19754
27;0.3877899646759033;-2012;-165;-919;19751
28;0.4021592140197754;-2011;-165;-919;19750
29;0.41638970375061035;-2012;-165;-918;19755
30;0.4306640625;-2013;-166;-919;19757
31;0.44490933418273926;-2012;-165;-919;19757
32;0.45918750762939453;-2012;-166;-920;19761
33;0.4733388423919678;-2013;-166;-919;19760
34;0.4877784252166748;-2011;-165;-919;19758
35;0.5019755363464355;-2012;-165;-920;19762
36;0.5243387222290039;-2011;-165;-919;19756
37;0.5390071868896484;-2012;-166;-920;19756
38;0.5532333850860596;-2010;-165;-920;19759
39;0.5675930976867676;-2013;-166;-919;19760
40;0.5818061828613281;-2012;-166;-920;19761
41;0.5960216522216797;-2013;-164;-919;19746
42;0.6103529930114746;-2013;-165;-919;19758
43;0.6272504329681396;-2012;-166;-920;19760
44;0.6459832191467285;-2013;-166;-920;19753
45;0.6646690368652344;-2013;-166;-919;19756
46;0.683366060256958;-2013;-166;-920;19762
47;0.7020857334136963;-2011;-164;-920;19754
48;0.7207424640655518;-2011;-166;-921;19753
49;0.7394461631774902;-2012;-164;-919;19764
50;0.7581636905670166;-2012;-167;-921;19758
51;0.7768304347991943;-2011;-165;-919;19761
52;0.7954285144805908;-2011;-165;-920;19754
53;0.8140711784362793;-2011;-165;-920;19758
54;0.8329019546508789;-2012;-165;-920;19757
55;0.8516554832458496;-2011;-164;-920;19759
56;0.8703751564025879;-2012;-165;-920;19748
57;0.8891150951385498;-2012;-165;-920;19749
58;0.9078388214111328;-2011;-165;-920;19751
59;0.9371156692504883;-2013;-165;-920;19750
60;0.9558093547821045;-2012;-165;-921;19754
61;0.9743602275848389;-2012;-165;-920;19758
62;0.993034839630127;-2012;-166;-922;19756
63;1.0116753578186035;-2012;-166;-920;19752
64;1.0683989524841309;-2013;-165;-921;19755
65;1.0826432704925537;-2013;-166;-919;19755
66;1.0969727039337158;-2013;-166;-920;19756
67;1.111311912536621;-2012;-165;-920;19759
68;1.1255264282226562;-2011;-165;-920;19759
69;1.1398353576660156;-2012;-166;-920;19756
70;1.1540870666503906;-2012;-166;-920;19757
71;1.1684651374816895;-2012;-164;-921;19754
72;1.1833326816558838;-2012;-165;-921;19753
73;1.1976380348205566;-2012;-165;-920;19749
74;1.21189546585083;-2011;-166;-921;19756
75;1.2260515689849854;-2012;-165;-921;19756
76;1.240342140197754;-2012;-165;-920;19752
77;1.2546021938323975;-2013;-165;-920;19753
78;1.2688615322113037;-2012;-166;-920;19747
79;1.2830820083618164;-2011;-165;-920;19756
80;1.297304391860962;-2012;-166;-921;19751
81;1.3117315769195557;-2013;-166;-920;19752
82;1.3259539604187012;-2012;-164;-921;19755
83;1.3402621746063232;-2012;-166;-920;19755
84;1.3544976711273193;-2012;-165;-920;19751
85;1.3687341213226318;-2012;-166;-922;19751
86;1.3830373287200928;-2011;-165;-920;19758
87;1.3974277973175049;-2012;-165;-920;19745
88;1.4117350578308105;-2012;-164;-920;19752
89;1.4259874820709229;-2012;-166;-920;19751
90;1.4403316974639893;-2012;-164;-921;19757
91;1.4546051025390625;-2011;-164;-921;19750
92;1.468834400177002;-2013;-165;-920;19752
93;1.4831507205963135;-2011;-166;-920;19750
94;1.4974360466003418;-2011;-165;-920;19759
95;1.5117013454437256;-2013;-164;-921;19755
96;1.5260117053985596;-2013;-165;-921;19754
97;1.5403239727020264;-2013;-166;-922;19757
98;1.5545053482055664;-2012;-165;-921;19756
99;1.5687596797943115;-2012;-165;-920;19750
100;1.583017110824585;-2012;-166;-921;19760
101;1.597405195236206;-2012;-165;-921;19749
102;1.6116836071014404;-2012;-166;-920;19748
103;1.6259069442749023;-2012;-165;-920;19746
104;1.640214443206787;-2012;-165;-921;19748
105;1.6632823944091797;-2011;-165;-920;19750
106;1.677729845046997;-2012;-165;-920;19748
107;1.692026138305664;-2012;-166;-920;19756
108;1.706310510635376;-2012;-167;-921;19757
109;1.7298774719238281;-2012;-165;-920;19751
110;1.7487084865570068;-2012;-165;-921;19753
111;1.7674920558929443;-2012;-164;-921;19752
112;1.7863969802856445;-2012;-165;-920;19755
113;1.8051567077636719;-2012;-166;-921;19750
114;1.8238813877105713;-2013;-165;-920;19742
115;1.8427951335906982;-2013;-165;-920;19738
116;1.8615520000457764;-2013;-166;-920;19748
117;1.8803136348724365;-2012;-165;-921;19748
118;1.8990533351898193;-2013;-164;-920;19751
119;1.9179589748382568;-2012;-166;-921;19745
120;1.9365777969360352;-2012;-166;-921;19741
121;1.9553873538970947;-2012;-166;-921;19750
122;1.974074125289917;-2013;-165;-920;19752
123;1.9928011894226074;-2013;-167;-922;19738
124;2.011554718017578;-2012;-164;-920;19749
125;2.030393362045288;-2012;-167;-920;19747
126;2.0491251945495605;-2012;-165;-921;19734
127;2.067950963973999;-2011;-166;-921;19748
128;2.086568832397461;-2012;-166;-921;19748
129;2.105292320251465;-2011;-166;-921;19748
130;2.1354081630706787;-2013;-165;-921;19751
131;2.149831533432007;-2012;-165;-921;19749
132;2.164064884185791;-2012;-166;-922;19731
133;2.1783392429351807;-2012;-165;-922;19736
134;2.192599296569824;-2013;-165;-920;19748
135;2.2068939208984375;-2012;-167;-921;19745
136;2.2212443351745605;-2012;-165;-921;19733
137;2.2354423999786377;-2013;-166;-921;19728
138;2.2520740032196045;-2013;-166;-921;19735
139;2.266362190246582;-2012;-165;-921;19749
140;2.2806787490844727;-2012;-165;-920;19741
141;2.2949447631835938;-2013;-166;-921;19753
142;2.309194326400757;-2014;-166;-922;19755
143;2.3234105110168457;-2013;-165;-922;19751
144;2.3377130031585693;-2012;-166;-921;19749
145;2.351961135864258;-2013;-167;-921;19746
146;2.366178512573242;-2012;-165;-921;19752
147;2.3804657459259033;-2013;-164;-921;19743
148;2.394778251647949;-2012;-166;-922;19733
149;2.4090285301208496;-2012;-165;-922;19730
150;2.4232828617095947;-2013;-166;-922;19742
151;2.437652111053467;-2013;-166;-921;19743
152;2.4518754482269287;-2012;-164;-921;19747
153;2.466125726699829;-2013;-166;-922;19720
154;2.480384111404419;-2012;-164;-921;19749
155;2.4946751594543457;-2012;-166;-922;19735
156;2.5089657306671143;-2012;-166;-922;19742
157;2.52323579788208;-2012;-167;-922;19732
158;2.537607192993164;-2012;-166;-921;19743
159;2.551856756210327;-2013;-165;-920;19736
160;2.566133975982666;-2012;-165;-922;19748
161;2.5804662704467773;-2012;-165;-922;19754
162;2.594785690307617;-2012;-166;-922;19749
163;2.6090550422668457;-2012;-165;-921;19734
164;2.623354196548462;-2011;-166;-922;19738
165;2.637702703475952;-2012;-164;-921;19735
166;2.6519439220428467;-2013;-166;-921;19752
167;2.6662111282348633;-2013;-165;-921;19732
168;2.680525541305542;-2012;-166;-923;19719
169;2.6948330402374268;-2013;-167;-922;19717
170;2.709135055541992;-2013;-166;-922;19716
171;2.723365545272827;-2013;-166;-922;19719
172;2.737668752670288;-2011;-166;-921;19719
173;2.751955032348633;-2013;-166;-921;19740
174;2.7662124633789062;-2013;-165;-921;19746
175;2.780500888824463;-2013;-165;-922;19740
176;2.7948029041290283;-2012;-166;-923;19744
177;2.8090553283691406;-2012;-165;-921;19756
178;2.8233087062835693;-2013;-165;-922;19739
179;2.8380320072174072;-2013;-166;-921;19761
180;2.8567006587982178;-2012;-166;-922;19749
181;2.8754312992095947;-2012;-165;-923;19752
182;2.894153118133545;-2012;-167;-922;19751
183;2.912905693054199;-2012;-167;-922;19759
184;2.94103741645813;-2013;-165;-923;19750
185;2.9553375244140625;-2013;-165;-922;19762
186;2.9696128368377686;-2012;-167;-923;19757
187;2.9838943481445312;-2013;-166;-922;19742
188;2.998253583908081;-2012;-166;-921;19761
189;3.0125017166137695;-2012;-166;-923;19741
190;3.0268490314483643;-2013;-166;-923;19749
191;3.0412113666534424;-2012;-166;-922;19752
192;3.055464744567871;-2012;-166;-922;19753
193;3.0697431564331055;-2013;-166;-923;19744
194;3.084036350250244;-2012;-167;-922;19746
195;3.098362684249878;-2013;-166;-921;19755
196;3.112584114074707;-2013;-165;-922;19759
197;3.1269233226776123;-2012;-165;-922;19746
198;3.141242742538452;-2013;-167;-923;19751
199;3.155465841293335;-2012;-166;-922;19746
200;3.1697442531585693;-2013;-166;-922;19752
201;3.1840295791625977;-2012;-165;-923;19749
202;3.1983487606048584;-2013;-166;-923;19750
203;3.212529182434082;-2013;-166;-922;19747
204;3.226799488067627;-2013;-166;-922;19755
205;3.2412097454071045;-2013;-165;-922;19756
206;3.2554500102996826;-2012;-165;-923;19751
207;3.269754409790039;-2012;-166;-922;19749
208;3.2840325832366943;-2014;-166;-923;19748
209;3.298346996307373;-2012;-166;-923;19741
210;3.31258225440979;-2012;-164;-923;19743
211;3.3353161811828613;-2013;-166;-922;19755
212;3.349597692489624;-2013;-166;-922;19752
213;3.363914966583252;-2012;-166;-922;19748
214;3.37825345993042;-2012;-167;-922;19755
215;3.392477512359619;-2011;-166;-921;19745
216;3.4068069458007812;-2012;-166;-923;19745
217;3.421250104904175;-2013;-166;-922;19751
218;3.435535430908203;-2012;-165;-924;19753
219;3.4498226642608643;-2013;-166;-922;19751
220;3.46407413482666;-2012;-166;-924;19741
221;3.478325366973877;-2013;-166;-922;19748
222;3.4926507472991943;-2014;-165;-922;19757
223;3.506948947906494;-2012;-166;-922;19747
224;3.523747682571411;-2011;-167;-923;19753
225;3.5380728244781494;-2013;-165;-922;19745
226;3.552316188812256;-2012;-167;-922;19752
227;3.5665953159332275;-2012;-166;-923;19751
228;3.580929756164551;-2012;-165;-923;19748
229;3.595141887664795;-2013;-167;-923;19749
230;3.6093943119049072;-2013;-166;-922;19746
231;3.623729705810547;-2012;-166;-922;19745
232;3.638025999069214;-2012;-165;-923;19748
233;3.6541404724121094;-2013;-166;-923;19739
234;3.672922134399414;-2012;-165;-923;19753
235;3.691663980484009;-2012;-166;-923;19742
236;3.7104015350341797;-2012;-166;-923;19748
237;3.729020118713379;-2013;-166;-923;19745
238;3.747703790664673;-2012;-166;-923;19741
239;3.7663376331329346;-2013;-166;-923;19748
240;3.785076379776001;-2014;-166;-922;19746
241;3.803731918334961;-2012;-166;-924;19758
242;3.8224687576293945;-2012;-166;-924;19756
243;3.841224193572998;-2012;-165;-923;19757
244;3.859761953353882;-2012;-166;-923;19747
245;3.8784937858581543;-2013;-167;-924;19756
246;3.8972115516662598;-2013;-167;-924;19745
247;3.9159328937530518;-2012;-166;-923;19744
248;3.934626817703247;-2012;-167;-923;19757
249;3.9533944129943848;-2013;-167;-923;19741
250;3.9721059799194336;-2013;-166;-922;19748
251;3.9907848834991455;-2013;-166;-923;19743
252;4.00944447517395;-2013;-164;-923;19752
253;4.028189182281494;-2012;-164;-924;19744
254;4.046942710876465;-2012;-167;-924;19741
255;4.0657007694244385;-2012;-166;-922;19741
256;4.084357261657715;-2013;-166;-924;19742
257;4.1030778884887695;-2012;-166;-923;19754
258;4.121729612350464;-2013;-167;-924;19736
259;4.151655197143555;-2013;-167;-923;19753
260;4.165905714035034;-2012;-167;-922;19751
261;4.180253982543945;-2012;-167;-924;19735
262;4.194507360458374;-2014;-166;-923;19740
263;4.2087624073028564;-2013;-166;-924;19736
264;4.223038673400879;-2013;-166;-924;19741
265;4.237361907958984;-2013;-166;-923;19737
266;4.251607418060303;-2013;-166;-924;19741
267;4.265832424163818;-2013;-165;-924;19748
268;4.28019905090332;-2013;-166;-924;19733
269;4.294426202774048;-2013;-166;-924;19747
270;4.308676481246948;-2013;-166;-923;19745
271;4.322896718978882;-2013;-166;-924;19750
272;4.3371851444244385;-2013;-166;-924;19751
273;4.351478338241577;-2012;-166;-925;19748
274;4.365715503692627;-2013;-166;-923;19748
275;4.3800270557403564;-2014;-166;-924;19739
276;4.3942530155181885;-2013;-165;-923;19741
277;4.408547401428223;-2014;-165;-924;19739
278;4.422810792922974;-2013;-166;-924;19741
279;4.437119960784912;-2012;-166;-924;19743
280;4.451406478881836;-2013;-167;-924;19740
281;4.46563458442688;-2013;-167;-924;19747
282;4.479825019836426;-2014;-166;-923;19743
283;4.494055271148682;-2013;-166;-924;19751
284;4.508365631103516;-2013;-167;-925;19746
285;4.522599697113037;-2012;-166;-924;19743
286;4.545939683914185;-2013;-166;-925;19752
287;4.560260057449341;-2012;-165;-923;19745
288;4.574447393417358;-2013;-166;-923;19750
289;4.588711738586426;-2012;-166;-923;19752
290;4.602978229522705;-2014;-166;-925;19744
291;4.617346286773682;-2012;-167;-924;19751
292;4.63163161277771;-2013;-166;-924;19752
293;4.645860910415649;-2012;-166;-925;19753
294;4.660205125808716;-2014;-166;-923;19742
295;4.674459457397461;-2012;-167;-924;19753
296;4.688723802566528;-2014;-166;-924;19751
297;4.702986001968384;-2014;-167;-924;19743
298;4.717295408248901;-2013;-167;-923;19743
299;4.731550455093384;-2013;-167;-924;19744
300;4.745768785476685;-2012;-165;-924;19743
301;4.76012110710144;-2013;-167;-924;19742
302;4.774410247802734;-2012;-166;-924;19741
303;4.788731813430786;-2013;-165;-924;19754
304;4.803018093109131;-2013;-165;-924;19743
305;4.817331314086914;-2013;-166;-925;19735
306;4.831616640090942;-2014;-165;-925;19741
307;4.845841646194458;-2013;-166;-924;19744
308;4.861202955245972;-2013;-165;-924;19756
309;4.879926919937134;-2012;-166;-925;19748
310;4.902078866958618;-2013;-166;-924;19752
311;4.920827388763428;-2012;-166;-923;19748
312;4.939496994018555;-2013;-166;-925;19745
313;4.958287715911865;-2013;-166;-923;19742
314;4.976956367492676;-2013;-168;-924;19728
315;4.995673179626465;-2013;-166;-924;19759
316;5.014315843582153;-2013;-167;-923;19760
317;5.033074378967285;-2014;-165;-924;19739
318;5.05170202255249;-2012;-166;-923;19755
319;5.070509910583496;-2013;-167;-924;19753
320;5.089172601699829;-2012;-167;-925;19755
321;5.107959032058716;-2013;-166;-924;19756
322;5.126590728759766;-2013;-167;-924;19743
323;5.145314455032349;-2014;-167;-924;19736
324;5.163931131362915;-2012;-167;-925;19752
325;5.18269157409668;-2012;-166;-925;19738
326;5.20139741897583;-2014;-166;-925;19754
327;5.219974994659424;-2014;-166;-924;19761
328;5.238613843917847;-2013;-167;-925;19756
329;5.2572784423828125;-2013;-166;-924;19758
330;5.275973081588745;-2013;-166;-925;19755
331;5.294550895690918;-2012;-166;-924;19755
332;5.313262462615967;-2013;-166;-925;19756
333;5.34355616569519;-2013;-166;-925;19756
334;5.36135458946228;-2012;-166;-925;19756
335;5.37561297416687;-2014;-166;-925;19755
336;5.389885187149048;-2014;-165;-924;19757
337;5.40412449836731;-2014;-165;-925;19756
338;5.418447732925415;-2014;-167;-925;19752
339;5.432718992233276;-2013;-167;-924;19756
340;5.446965217590332;-2013;-165;-925;19755
341;5.461265563964844;-2012;-167;-925;19762
342;5.475435733795166;-2014;-167;-925;19756
343;5.489689111709595;-2015;-166;-926;19764
344;5.503960371017456;-2013;-166;-924;19755
345;5.51829981803894;-2013;-166;-925;19761
346;5.532564878463745;-2013;-167;-926;19755
347;5.546866178512573;-2013;-166;-926;19756
348;5.561207294464111;-2013;-166;-925;19761
349;5.575443744659424;-2013;-168;-926;19753
350;5.5896971225738525;-2013;-168;-925;19758
351;5.6039934158325195;-2014;-166;-926;19751
352;5.618313550949097;-2014;-165;-926;19780
353;5.63257098197937;-2013;-166;-925;19777
354;5.64689302444458;-2013;-167;-925;19766
355;5.661207437515259;-2014;-166;-926;19775
356;5.675436496734619;-2013;-166;-926;19774
357;5.68973708152771;-2014;-165;-926;19781
358;5.704016208648682;-2014;-165;-926;19747
359;5.71834135055542;-2013;-166;-925;19746
360;5.741601228713989;-2014;-168;-925;19753
361;5.75587272644043;-2014;-167;-925;19750
362;5.77025294303894;-2014;-166;-924;19745
363;5.784489393234253;-2013;-167;-926;19745
364;5.798751592636108;-2014;-164;-925;19757
365;5.813032865524292;-2014;-168;-925;19748
366;5.827378034591675;-2013;-164;-926;19758
367;5.841637134552002;-2012;-167;-926;19740
368;5.855787515640259;-2013;-167;-925;19736
369;5.870258808135986;-2013;-167;-926;19747
370;5.884500980377197;-2014;-167;-925;19765
371;5.89876127243042;-2015;-167;-926;19753
372;5.913041353225708;-2013;-166;-925;19752
373;5.9273858070373535;-2014;-166;-925;19766
374;5.941766977310181;-2014;-167;-925;19743
375;5.956000328063965;-2014;-165;-926;19755
376;5.970313549041748;-2013;-168;-926;19769
377;5.984530687332153;-2014;-166;-926;19749
378;5.998791933059692;-2013;-166;-926;19764
379;6.013144493103027;-2014;-165;-926;19745
380;6.0509936809539795;-2013;-166;-926;19752
381;6.065184831619263;-2012;-166;-926;19747
382;6.08347749710083;-2013;-166;-926;19769
383;6.102168083190918;-2012;-167;-926;19769
384;6.120830774307251;-2014;-165;-926;19766
385;6.139492511749268;-2013;-166;-926;19759
386;6.158143997192383;-2014;-167;-926;19762
387;6.176633596420288;-2013;-166;-926;19758
388;6.195485591888428;-2013;-167;-926;19751
389;6.214195966720581;-2014;-166;-926;19758
390;6.2328267097473145;-2013;-167;-925;19740
391;6.251441240310669;-2014;-167;-926;19750
392;6.2698400020599365;-2014;-167;-926;19742
393;6.288508415222168;-2013;-166;-927;19744
394;6.307045221328735;-2013;-167;-927;19751
395;6.32988429069519;-2014;-166;-926;19743
396;6.348513841629028;-2014;-167;-926;19744
397;6.367103576660156;-2014;-166;-926;19773
398;6.385752201080322;-2014;-166;-927;19743
399;6.404316663742065;-2014;-166;-928;19742
400;6.422957420349121;-2014;-165;-927;19740
401;6.441599130630493;-2013;-168;-927;19740
402;6.460262775421143;-2013;-168;-927;19747
403;6.478736400604248;-2014;-167;-927;19761
404;6.497399806976318;-2014;-169;-926;19752
405;6.516080617904663;-2013;-169;-926;19788
406;6.546650409698486;-2013;-165;-925;19750
407;6.565291881561279;-2014;-165;-926;19742
408;6.5800862312316895;-2014;-164;-925;19755
409;6.594295501708984;-2013;-169;-925;19751
410;6.608561754226685;-2013;-164;-927;19746
411;6.631938934326172;-2013;-167;-926;19745
412;6.6461381912231445;-2014;-169;-928;19737
413;6.660478353500366;-2014;-164;-925;19734
414;6.674748420715332;-2014;-165;-926;19745
415;6.6889448165893555;-2013;-170;-927;19729
416;6.703137159347534;-2014;-164;-926;19739
417;6.717406272888184;-2014;-169;-925;19778
418;6.7316014766693115;-2013;-165;-927;19775
419;6.745784521102905;-2013;-167;-927;19734
420;6.76000189781189;-2013;-167;-926;19746
421;6.774186372756958;-2014;-165;-926;19738
422;6.788426637649536;-2013;-164;-927;19765
423;6.802563667297363;-2014;-167;-926;19795
424;6.8167948722839355;-2013;-164;-927;19736
425;6.830984354019165;-2014;-167;-927;19739
426;6.845147371292114;-2013;-167;-925;19772
427;6.859333753585815;-2014;-163;-927;19732
428;6.873554706573486;-2014;-164;-927;19745
429;6.887792110443115;-2013;-164;-927;19753
430;6.90198540687561;-2015;-164;-926;19778
431;6.9161536693573;-2013;-164;-926;19751
432;6.930389881134033;-2013;-166;-926;19740
433;6.952621698379517;-2013;-168;-925;19763
434;6.966859817504883;-2014;-169;-927;19741
435;6.980980396270752;-2014;-167;-926;19789
436;6.995167255401611;-2014;-164;-927;19777
437;7.009370803833008;-2014;-164;-926;19798
438;7.02362585067749;-2014;-167;-925;19743
439;7.037929058074951;-2015;-169;-927;19761
440;7.0521135330200195;-2014;-167;-927;19742
441;7.066311597824097;-2013;-169;-927;19761
442;7.080524921417236;-2013;-166;-926;19752
443;7.094789266586304;-2014;-168;-927;19738
444;7.1089863777160645;-2014;-166;-928;19792
445;7.123152494430542;-2014;-163;-928;19779
446;7.137426853179932;-2013;-168;-927;19786
447;7.151626110076904;-2013;-166;-927;19768
448;7.165804386138916;-2014;-168;-926;19758
449;7.180057525634766;-2013;-166;-926;19779
450;7.194248676300049;-2014;-169;-927;19766
451;7.208491802215576;-2014;-168;-927;19775
