;Time;Thrust;BEM pressure;N2O pressure;N2OWeigth
0;0.0;2.389558;0.003188241071328403;0.005637235971085744;-14.530714421894505
1;0.016152143478393555;2.684558;0.0016779421270705155;0.0016617522115048161;-14.411458372301617
2;0.030608177185058594;2.687558;0.0001676431828126282;0.009612719730666658;-14.416325966162551
3;0.04528021812438965;2.686558;0.0016779421270705155;0.0016617522115048161;-14.418759763093018
4;0.059902191162109375;2.687558;0.0016779421270705155;0.009612719730666658;-14.418759763093018
5;0.07451844215393066;2.687558;0.006208838959844178;0.0016617522115048161;-14.413892169232085
6;0.08915925025939941;2.6885580000000004;0.0016779421270705155;0.005637235971085744;-14.411458372301617
7;0.10381412506103516;2.6905580000000002;0.0001676431828126282;0.0016617522115048161;-14.416325966162551
8;0.11851835250854492;2.6905580000000002;0.00469854001558629;0.0016617522115048161;-14.413892169232085
9;0.13309931755065918;2.687558;0.006208838959844178;0.0016617522115048161;-14.413892169232085
10;0.14787912368774414;2.687558;0.0016779421270705155;0.0016617522115048161;-14.413892169232085
11;0.16280627250671387;2.6855580000000003;0.0001676431828126282;0.005637235971085744;-14.421193560023486
12;0.17814159393310547;2.6885580000000004;0.0016779421270705155;0.0016617522115048161;-14.416325966162551
13;0.19288039207458496;2.686558;0.003188241071328403;0.005637235971085744;-14.413892169232085
14;0.20792627334594727;2.6855580000000003;0.00469854001558629;0.005637235971085744;-14.418759763093018
15;0.22288227081298828;2.6885580000000004;0.0016779421270705155;0.005637235971085744;-14.411458372301617
16;0.2378673553466797;2.686558;0.0016779421270705155;0.0016617522115048161;-14.411458372301617
17;0.252948522567749;2.6885580000000004;0.0016779421270705155;0.005637235971085744;-14.411458372301617
18;0.26793551445007324;2.6855580000000003;0.003188241071328403;0.009612719730666658;-14.411458372301617
19;0.28298139572143555;2.684558;0.0016779421270705155;-0.002313731548076098;-14.413892169232085
20;0.2980916500091553;2.687558;0.003188241071328403;0.009612719730666658;-14.411458372301617
21;0.31309962272644043;2.684558;0.003188241071328403;0.0016617522115048161;-14.421193560023486
22;0.32813262939453125;2.684558;0.003188241071328403;0.005637235971085744;-14.418759763093018
23;0.3432295322418213;2.6855580000000003;0.003188241071328403;-0.002313731548076098;-14.416325966162551
24;0.35821056365966797;2.684558;0.00469854001558629;0.0016617522115048161;-14.413892169232085
25;0.3733854293823242;2.6835579999999997;0.007719137904102058;0.005637235971085744;-14.413892169232085
26;0.3883845806121826;2.6835579999999997;0.006208838959844178;0.0016617522115048161;-14.411458372301617
27;0.4034886360168457;2.684558;0.0016779421270705155;0.0016617522115048161;-14.413892169232085
28;0.4185788631439209;2.6835579999999997;0.0016779421270705155;0.005637235971085744;-14.416325966162551
29;0.4337127208709717;2.6835579999999997;0.0016779421270705155;0.005637235971085744;-14.418759763093018
30;0.4488656520843506;2.6855580000000003;0.00469854001558629;0.005637235971085744;-14.413892169232085
31;0.4640529155731201;2.686558;0.003188241071328403;0.005637235971085744;-14.416325966162551
32;0.47925662994384766;2.6855580000000003;0.003188241071328403;0.005637235971085744;-14.421193560023486
33;0.4945237636566162;2.687558;0.0016779421270705155;0.005637235971085744;-14.421193560023486
34;0.5097048282623291;2.686558;0.0016779421270705155;0.005637235971085744;-14.418759763093018
35;0.5250048637390137;2.6855580000000003;0.0016779421270705155;-0.002313731548076098;-14.421193560023486
36;0.5402059555053711;2.687558;0.00469854001558629;0.0016617522115048161;-14.423627356953952
37;0.5556216239929199;2.684558;0.0016779421270705155;0.0016617522115048161;-14.418759763093018
38;0.5709810256958008;2.6855580000000003;0.0016779421270705155;0.005637235971085744;-14.418759763093018
39;0.5861778259277344;2.686558;0.0016779421270705155;0.005637235971085744;-14.416325966162551
40;0.6015138626098633;2.684558;0.0016779421270705155;0.005637235971085744;-14.413892169232085
41;0.6168029308319092;2.6835579999999997;0.0001676431828126282;0.005637235971085744;-14.421193560023486
42;0.6321260929107666;2.686558;0.0001676431828126282;0.005637235971085744;-14.418759763093018
43;0.6474850177764893;2.687558;0.0001676431828126282;0.005637235971085744;-14.421193560023486
44;0.6636440753936768;2.679558;0.0016779421270705155;0.0016617522115048161;-14.447965326258624
45;0.6837818622589111;2.6675579999999997;0.0016779421270705155;-0.002313731548076098;-14.445531529328157
46;0.7038769721984863;2.6695580000000003;-0.0013426557614452592;0.0016617522115048161;-14.445531529328157
47;0.7240619659423828;2.6695580000000003;0.003188241071328403;0.005637235971085744;-14.508810249520302
48;0.7530162334442139;2.6595579999999996;0.0016779421270705155;0.0016617522115048161;-14.428494950814887
49;0.770535945892334;2.681558;0.0016779421270705155;0.005637235971085744;-14.418759763093018
50;0.7861251831054688;2.6835579999999997;0.0016779421270705155;0.005637235971085744;-14.418759763093018
51;0.8015801906585693;2.6835579999999997;0.003188241071328403;0.0016617522115048161;-14.416325966162551
52;0.8170461654663086;2.682558;0.0016779421270705155;0.009612719730666658;-14.421193560023486
53;0.8326232433319092;2.6855580000000003;0.010739735792617833;0.005637235971085744;-14.423627356953952
54;0.848182201385498;2.6835579999999997;0.00469854001558629;0.005637235971085744;-14.418759763093018
55;0.8636951446533203;2.682558;0.0016779421270705155;0.005637235971085744;-14.421193560023486
56;0.8792281150817871;2.684558;0.0016779421270705155;0.005637235971085744;-14.416325966162551
57;0.8947272300720215;2.6855580000000003;0.003188241071328403;0.0016617522115048161;-14.423627356953952
58;0.9102373123168945;2.682558;0.01225003473687572;0.005637235971085744;-14.421193560023486
59;0.9259042739868164;2.684558;0.0016779421270705155;0.005637235971085744;-14.416325966162551
60;0.9414184093475342;2.684558;0.0016779421270705155;0.0016617522115048161;-14.413892169232085
61;0.9569673538208008;2.6855580000000003;0.003188241071328403;0.005637235971085744;-14.418759763093018
62;0.972689151763916;2.681558;0.0016779421270705155;0.005637235971085744;-14.421193560023486
63;0.988234281539917;2.684558;0.0001676431828126282;-0.002313731548076098;-14.418759763093018
64;1.0042903423309326;2.5925580000000004;-0.010404449426992576;1.4845171945351863;-14.598860735947584
65;1.061861515045166;2.6195579999999996;0.4623191201257259;0.9637288220300865;-14.438230138536756
66;1.0782382488250732;2.6645580000000004;0.31279952464419514;0.6735185075806797;-14.447965326258624
67;1.09391450881958;2.6625579999999998;0.23728457743130082;0.5502785110336712;-14.445531529328157
68;1.109581470489502;2.6645580000000004;0.22218158798872195;0.5065481896782812;-14.430928747745355
69;1.1253674030303955;2.668558;0.22218158798872195;0.4946217383995383;-14.440663935467223
70;1.1410996913909912;2.673558;0.19801680488059575;0.4747443196016338;-14.428494950814887
71;1.156714677810669;2.671558;0.1919756091035642;0.4667933520824719;-14.428494950814887
72;1.1725373268127441;2.673558;0.20707859854614308;0.4667933520824719;-14.428494950814887
73;1.188185453414917;2.673558;0.20707859854614308;0.4787198033612147;-14.421193560023486
74;1.2039177417755127;2.679558;0.19952710382485364;0.4866707708803765;-14.418759763093018
75;1.2195944786071777;2.676558;0.20103740276911153;0.4787198033612147;-14.413892169232085
76;1.235539436340332;2.681558;0.19499620699207998;0.4787198033612147;-14.418759763093018
77;1.2513446807861328;2.6805580000000004;0.20858889749040094;0.4707688358420528;-14.413892169232085
78;1.2672326564788818;2.682558;0.19046531015930632;0.4787198033612147;-14.413892169232085
79;1.2829854488372803;2.6835579999999997;0.19499620699207998;0.4707688358420528;-14.40902457537115
80;1.2988355159759521;2.679558;0.2025477017133694;0.4707688358420528;-14.411458372301617
81;1.3146636486053467;2.682558;0.1798932175495011;0.4588423845633101;-14.40902457537115
82;1.3306338787078857;2.681558;0.17234172282821167;0.4469159332845674;-14.40902457537115
83;1.3465158939361572;2.6805580000000004;0.1934859080478221;0.4429404495249864;-14.40902457537115
84;1.3625006675720215;2.6835579999999997;0.17838291860524322;0.4310139982462437;-14.411458372301617
85;1.3783297538757324;2.684558;0.1798932175495011;0.4270385144866628;-14.40902457537115
86;1.3941848278045654;2.681558;0.18593441332653265;0.4230630307270819;-14.406590778440684
87;1.4100778102874756;2.6805580000000004;0.18291381543801688;0.41511206320792;-14.406590778440684
88;1.4261486530303955;2.682558;0.1587490323298907;0.3952346444100155;-14.40902457537115
89;1.4420068264007568;2.6835579999999997;0.14515634183156972;0.38728367689085363;-14.406590778440684
90;1.4579298496246338;2.681558;0.16781082599543803;0.3793327093716918;-14.411458372301617
91;1.474557876586914;2.6755579999999997;0.14213574394305395;0.3594552905737872;-14.440663935467223
92;1.4956047534942627;2.671558;0.1466666407758276;0.34752883929504447;-14.435796341606288
93;1.5167787075042725;2.668558;0.1376048471102803;0.32367593673755896;-14.43336254467582
94;1.5378971099853516;2.6695580000000003;0.12250185766770141;0.2998230341800735;-14.443097732397689
95;1.5590260028839111;2.6675579999999997;0.10890916716938046;0.26801916410342613;-14.428494950814887
96;1.5786688327789307;2.6755579999999997;0.05000750834332288;0.0215391710094094;-14.379819012205544
97;1.6033680438995361;2.6965580000000005;0.03943541573351767;0.0215391710094094;-14.36765002755321
98;1.619361162185669;2.702558;0.028863323123712474;0.009612719730666658;-14.384686606066479
99;1.6356770992279053;2.7015580000000003;0.024332426290938812;0.013588203490247572;-14.382252809136013
100;1.6518580913543701;2.697558;0.01980152945816515;0.013588203490247572;-14.387120402996946
101;1.6679649353027344;2.6935580000000003;0.015270632625391488;0.005637235971085744;-14.399289387649283
102;1.6840159893035889;2.6935580000000003;0.013760333681133607;0.0016617522115048161;-14.396855590718815
103;1.7000210285186768;2.692558;0.01225003473687572;0.0016617522115048161;-14.401723184579748
104;1.7162680625915527;2.6905580000000002;0.009229436848359945;0.005637235971085744;-14.399289387649283
105;1.7324910163879395;2.687558;0.007719137904102058;0.0016617522115048161;-14.399289387649283
106;1.748703956604004;2.687558;0.006208838959844178;-0.002313731548076098;-14.406590778440684
107;1.7648980617523193;2.686558;0.00469854001558629;0.0016617522115048161;-14.406590778440684
108;1.7811882495880127;2.684558;0.00469854001558629;0.0016617522115048161;-14.40902457537115
109;1.7973451614379883;2.682558;0.00469854001558629;0.0016617522115048161;-14.416325966162551
110;1.8135170936584473;2.6855580000000003;0.003188241071328403;0.0016617522115048161;-14.416325966162551
111;1.8297243118286133;2.684558;0.0016779421270705155;-0.002313731548076098;-14.413892169232085
112;1.8460772037506104;2.6855580000000003;0.00469854001558629;0.005637235971085744;-14.40902457537115
113;1.8623332977294922;2.682558;0.003188241071328403;0.005637235971085744;-14.413892169232085
114;1.8786122798919678;2.6855580000000003;0.00469854001558629;-0.006289215307657012;-14.411458372301617
115;1.8949382305145264;2.686558;0.003188241071328403;0.0016617522115048161;-14.413892169232085
116;1.9112143516540527;2.6835579999999997;0.0016779421270705155;0.005637235971085744;-14.418759763093018
117;1.927537202835083;2.682558;0.0016779421270705155;0.0016617522115048161;-14.413892169232085
118;1.9437685012817383;2.684558;0.003188241071328403;0.0016617522115048161;-14.418759763093018
119;1.9600393772125244;2.682558;0.003188241071328403;0.0016617522115048161;-14.413892169232085
120;1.9764413833618164;2.6805580000000004;0.0016779421270705155;-0.002313731548076098;-14.421193560023486
121;1.992781400680542;2.682558;0.0016779421270705155;-0.002313731548076098;-14.418759763093018
122;2.009129524230957;2.679558;0.0016779421270705155;0.0016617522115048161;-14.418759763093018
123;2.0256474018096924;2.682558;0.0001676431828126282;0.0016617522115048161;-14.418759763093018
124;2.042072296142578;2.6805580000000004;0.003188241071328403;-0.006289215307657012;-14.423627356953952
125;2.058441638946533;2.681558;0.0016779421270705155;0.0016617522115048161;-14.418759763093018
126;2.074901580810547;2.682558;0.0016779421270705155;-0.002313731548076098;-14.416325966162551
127;2.09136962890625;2.6805580000000004;0.0001676431828126282;-0.002313731548076098;-14.416325966162551
128;2.1079015731811523;2.6805580000000004;0.0016779421270705155;-0.002313731548076098;-14.421193560023486
129;2.1245245933532715;2.679558;0.0016779421270705155;-0.002313731548076098;-14.416325966162551
130;2.1410675048828125;2.6785579999999998;0.0001676431828126282;0.0016617522115048161;-14.423627356953952
131;2.15751051902771;2.6785579999999998;0.0016779421270705155;-0.002313731548076098;-14.423627356953952
132;2.17419171333313;2.6785579999999998;0.0001676431828126282;-0.002313731548076098;-14.426061153884419
133;2.1907026767730713;2.6805580000000004;0.0016779421270705155;0.0016617522115048161;-14.418759763093018
134;2.207362651824951;2.6805580000000004;0.0001676431828126282;0.0016617522115048161;-14.418759763093018
135;2.223907709121704;2.676558;0.0016779421270705155;-0.002313731548076098;-14.474737092493761
136;2.2466466426849365;2.6705579999999998;0.0001676431828126282;0.005637235971085744;-14.428494950814887
137;2.2632546424865723;2.6775580000000003;-0.0013426557614452592;-0.002313731548076098;-14.445531529328157
138;2.285895824432373;2.6535580000000003;0.0001676431828126282;0.005637235971085744;-14.462568107841427
139;2.3078508377075195;2.666558;0.0001676431828126282;-0.002313731548076098;-14.45039912318909
140;2.330021619796753;2.663558;0.0001676431828126282;0.0016617522115048161;-14.455266717050025
141;2.3522818088531494;2.665558;0.0016779421270705155;0.0016617522115048161;-14.455266717050025
142;2.373591899871826;2.673558;0.0001676431828126282;0.0016617522115048161;-14.426061153884419
143;2.3902459144592285;2.679558;0.0016779421270705155;-0.002313731548076098;-14.423627356953952
144;2.4069769382476807;2.6805580000000004;-0.0013426557614452592;0.0016617522115048161;-14.423627356953952
145;2.4237279891967773;2.6755579999999997;-0.0013426557614452592;-0.006289215307657012;-14.428494950814887
146;2.4403040409088135;2.674558;0.0001676431828126282;-0.002313731548076098;-14.421193560023486
147;2.457045793533325;2.6805580000000004;0.0001676431828126282;-0.002313731548076098;-14.426061153884419
148;2.473778009414673;2.6785579999999998;0.0001676431828126282;0.0016617522115048161;-14.426061153884419
149;2.490489959716797;2.679558;0.0001676431828126282;0.0016617522115048161;-14.423627356953952
150;2.5072970390319824;2.6295580000000003;0.0001676431828126282;-0.002313731548076098;-14.472303295563295
151;2.5473849773406982;2.5475580000000004;0.6813124670431194;1.3732036492669206;-14.4942074679375
152;2.5618271827697754;2.6805580000000004;0.3837835750243158;0.7649546340510407;-14.430928747745355
153;2.5760252475738525;2.6785579999999998;0.25389786581813756;0.5383520597549285;-14.438230138536756
154;2.59049916267395;2.671558;0.16630052705118015;0.38728367689085363;-14.445531529328157
155;2.6047449111938477;2.6725580000000004;0.16176963021840648;0.3276514204971399;-14.435796341606288
156;2.618957042694092;2.676558;0.11948125977918567;0.29584755042049254;-14.440663935467223
157;2.6334011554718018;2.6805580000000004;0.12854305344473296;0.275970131622588;-14.440663935467223
158;2.6477513313293457;2.6785579999999998;0.12854305344473296;0.275970131622588;-14.43336254467582
159;2.6621451377868652;2.6805580000000004;0.13005335238899085;0.275970131622588;-14.428494950814887
160;2.676460027694702;2.6805580000000004;0.13911514605453817;0.28789658290133074;-14.426061153884419
161;2.690676212310791;2.682558;0.14213574394305395;0.28789658290133074;-14.418759763093018
162;2.7049973011016846;2.684558;0.11041946611363834;0.29187206666091164;-14.413892169232085
163;2.7192461490631104;2.686558;0.11948125977918567;0.2998230341800735;-14.413892169232085
164;2.7334980964660645;2.689558;0.12703275450047508;0.31174948545881626;-14.413892169232085
165;2.7477591037750244;2.6915579999999997;0.1360945481660224;0.31174948545881626;-14.40902457537115
166;2.7620363235473633;2.6885580000000004;0.1376048471102803;0.31970045297797806;-14.411458372301617
167;2.7763524055480957;2.6915579999999997;0.13911514605453817;0.3316269042567208;-14.406590778440684
168;2.7905640602111816;2.6885580000000004;0.12854305344473296;0.34752883929504447;-14.40902457537115
169;2.804849147796631;2.6885580000000004;0.14062544499879606;0.35150432305462537;-14.406590778440684
170;2.8191163539886475;2.6905580000000002;0.15723873338563282;0.37138174185253;-14.411458372301617
171;2.8334062099456787;2.6915579999999997;0.15119753760860127;0.3753572256121109;-14.40902457537115
172;2.8476052284240723;2.6885580000000004;0.16479022810692226;0.39125916065043453;-14.401723184579748
173;2.8620243072509766;2.6915579999999997;0.16932112493969592;0.4111365794483391;-14.401723184579748
174;2.876272439956665;2.6935580000000003;0.18593441332653265;0.419087546967501;-14.396855590718815
175;2.890488386154175;2.695558;0.18291381543801688;0.4310139982462437;-14.396855590718815
176;2.904693365097046;2.692558;0.1798932175495011;0.4469159332845674;-14.396855590718815
177;2.9189913272857666;2.6915579999999997;0.181403516493759;0.4508914170441483;-14.401723184579748
178;2.933237314224243;2.694558;0.19801680488059575;0.4429404495249864;-14.399289387649283
179;2.9473612308502197;2.6915579999999997;0.181403516493759;0.4588423845633101;-14.394421793788347
180;2.9618372917175293;2.694558;0.19801680488059575;0.4548669008037292;-14.399289387649283
181;2.9760525226593018;2.6935580000000003;0.18291381543801688;0.4469159332845674;-14.394421793788347
182;2.9902637004852295;2.692558;0.18291381543801688;0.4588423845633101;-14.396855590718815
183;3.0045735836029053;2.6915579999999997;0.18593441332653265;0.4429404495249864;-14.394421793788347
184;3.0188443660736084;2.695558;0.17536232071672744;0.41511206320792;-14.401723184579748
185;3.033109664916992;2.6965580000000005;0.16932112493969592;0.3952346444100155;-14.401723184579748
186;3.0474324226379395;2.692558;0.14968723866434339;0.3594552905737872;-14.394421793788347
187;3.0617785453796387;2.6935580000000003;0.11948125977918567;0.31970045297797806;-14.399289387649283
188;3.0759947299957275;2.6935580000000003;0.009229436848359945;0.0016617522115048161;-14.452832920119558
189;3.1057145595550537;2.671558;0.009229436848359945;0.009612719730666658;-14.416325966162551
190;3.1246416568756104;2.687558;0.009229436848359945;0.005637235971085744;-14.418759763093018
191;3.143336772918701;2.689558;0.013760333681133607;0.005637235971085744;-14.413892169232085
192;3.1620137691497803;2.689558;0.013760333681133607;0.013588203490247572;-14.411458372301617
193;3.180558681488037;2.6935580000000003;0.018291230513907263;0.009612719730666658;-14.353047245970407
194;3.1955318450927734;2.716558;0.03188392101222825;0.017563687249828486;-14.372517621414143
195;3.2097415924072266;2.7065580000000002;0.0258427252351967;0.009612719730666658;-14.372517621414143
196;3.22401762008667;2.705558;0.021311828402423037;0.005637235971085744;-14.382252809136013
197;3.238250732421875;2.703558;0.018291230513907263;0.009612719730666658;-14.377385215275078
198;3.2525815963745117;2.702558;0.01980152945816515;0.005637235971085744;-14.384686606066479
199;3.2668356895446777;2.702558;0.015270632625391488;0.005637235971085744;-14.389554199927414
200;3.2811098098754883;2.700558;0.013760333681133607;0.005637235971085744;-14.39198799685788
201;3.2954399585723877;2.7015580000000003;0.01225003473687572;0.005637235971085744;-14.389554199927414
202;3.309701919555664;2.6965580000000005;0.010739735792617833;0.005637235971085744;-14.389554199927414
203;3.3240127563476562;2.6985580000000002;0.007719137904102058;-0.002313731548076098;-14.394421793788347
