;Time;Thrust;BEM pressure;N2O pressure;N2OWeigth
0;0.0;-0.5418570000000003;0.04259647142384943;0.08777868141154661;5.523584882790707
1;0.01580500602722168;-0.21685700000000008;0.04259647142384943;0.08777868141154661;5.701252058714805
2;0.030273914337158203;-0.20485700000000007;0.03957587353533366;0.09175416517112753;5.706119652575739
3;0.04478883743286133;-0.20385700000000018;0.041086172479591544;0.08777868141154661;5.703685855645272
4;0.05942940711975098;-0.2058570000000004;0.04259647142384943;0.09175416517112753;5.701252058714805
5;0.07406830787658691;-0.2058570000000004;0.04410677036810732;0.09572964893070844;5.6988182617843375
6;0.0886681079864502;-0.2068570000000003;0.04259647142384943;0.08777868141154661;5.701252058714805
7;0.10343718528747559;-0.20385700000000018;0.04410677036810732;0.09175416517112753;5.701252058714805
8;0.11806702613830566;-0.20385700000000018;0.04259647142384943;0.08777868141154661;5.6988182617843375
9;0.13270068168640137;-0.2068570000000003;0.04410677036810732;0.08777868141154661;5.706119652575739
10;0.14757561683654785;-0.20485700000000007;0.04410677036810732;0.09572964893070844;5.708553449506206
11;0.1624283790588379;-0.20385700000000018;0.041086172479591544;0.09175416517112753;5.701252058714805
12;0.17751145362854004;-0.2058570000000004;0.04259647142384943;0.09175416517112753;5.701252058714805
13;0.19248318672180176;-0.2058570000000004;0.04259647142384943;0.09572964893070844;5.708553449506206
14;0.20757293701171875;-0.2068570000000003;0.04410677036810732;0.09572964893070844;5.703685855645272
15;0.22851181030273438;-0.2368570000000001;0.041086172479591544;0.0838031976519657;5.679347886340601
16;0.24368071556091309;-0.2058570000000004;0.04410677036810732;0.09572964893070844;5.693950667923404
17;0.25870370864868164;-0.20785700000000018;0.04410677036810732;0.0838031976519657;5.693950667923404
18;0.2737915515899658;-0.2108570000000003;0.04259647142384943;0.09175416517112753;5.703685855645272
19;0.2888343334197998;-0.20785700000000018;0.04410677036810732;0.09572964893070844;5.706119652575739
20;0.3040502071380615;-0.20385700000000018;0.04410677036810732;0.09175416517112753;5.701252058714805
21;0.31908607482910156;-0.2058570000000004;0.04259647142384943;0.09175416517112753;5.703685855645272
22;0.3341178894042969;-0.20885700000000007;0.04410677036810732;0.09175416517112753;5.706119652575739
23;0.3492298126220703;-0.2068570000000003;0.04410677036810732;0.09572964893070844;5.706119652575739
24;0.36435556411743164;-0.2068570000000003;0.04259647142384943;0.09175416517112753;5.6988182617843375
25;0.3794875144958496;-0.2058570000000004;0.04259647142384943;0.09175416517112753;5.701252058714805
26;0.3946521282196045;-0.2068570000000003;0.04259647142384943;0.09175416517112753;5.706119652575739
27;0.4098391532897949;-0.20785700000000018;0.04410677036810732;0.09175416517112753;5.703685855645272
28;0.4249701499938965;-0.2068570000000003;0.041086172479591544;0.09572964893070844;5.69638446485387
29;0.4400978088378906;-0.2068570000000003;0.04410677036810732;0.09175416517112753;5.6988182617843375
30;0.45528268814086914;-0.2098570000000004;0.04259647142384943;0.09970513269028937;5.6988182617843375
31;0.4705207347869873;-0.20885700000000007;0.041086172479591544;0.08777868141154661;5.708553449506206
32;0.48567938804626465;-0.20485700000000007;0.04259647142384943;0.08777868141154661;5.6988182617843375
33;0.5009534358978271;-0.20785700000000018;0.04259647142384943;0.09175416517112753;5.69638446485387
34;0.5163021087646484;-0.20885700000000007;0.04259647142384943;0.09572964893070844;5.6988182617843375
35;0.5315220355987549;-0.2098570000000004;0.04259647142384943;0.09175416517112753;5.706119652575739
36;0.546879768371582;-0.20885700000000007;0.04410677036810732;0.09572964893070844;5.701252058714805
37;0.56219482421875;-0.2068570000000003;0.04259647142384943;0.09175416517112753;5.693950667923404
38;0.5776524543762207;-0.21185700000000018;0.041086172479591544;0.09175416517112753;5.6988182617843375
39;0.5930294990539551;-0.2138570000000004;0.04259647142384943;0.09175416517112753;5.703685855645272
40;0.6086602210998535;-0.2108570000000003;0.04259647142384943;0.09175416517112753;5.708553449506206
41;0.6240861415863037;-0.20785700000000018;0.041086172479591544;0.09175416517112753;5.6915168709929365
42;0.6393921375274658;-0.20885700000000007;0.04410677036810732;0.0838031976519657;5.701252058714805
43;0.6548078060150146;-0.2068570000000003;0.04410677036810732;0.09572964893070844;5.706119652575739
44;0.670156717300415;-0.20785700000000018;0.04259647142384943;0.09175416517112753;5.703685855645272
45;0.685537576675415;-0.2098570000000004;0.04259647142384943;0.09175416517112753;5.701252058714805
46;0.7010214328765869;-0.20885700000000007;0.04410677036810732;0.09175416517112753;5.6988182617843375
47;0.7164883613586426;-0.20885700000000007;0.04259647142384943;0.09175416517112753;5.701252058714805
48;0.7318899631500244;-0.2098570000000004;0.041086172479591544;0.09572964893070844;5.703685855645272
49;0.7474379539489746;-0.20885700000000007;0.04259647142384943;0.09175416517112753;5.703685855645272
50;0.7629506587982178;-0.2098570000000004;0.041086172479591544;0.09175416517112753;5.6988182617843375
51;0.778388500213623;-0.20785700000000018;0.04259647142384943;0.09175416517112753;5.701252058714805
52;0.7939274311065674;-0.2098570000000004;0.04259647142384943;0.08777868141154661;5.703685855645272
53;0.8094563484191895;-0.2098570000000004;0.041086172479591544;0.08777868141154661;5.706119652575739
54;0.8250160217285156;-0.20885700000000007;0.04410677036810732;0.09175416517112753;5.703685855645272
55;0.8405032157897949;-0.2108570000000003;0.04259647142384943;0.08777868141154661;5.69638446485387
56;0.8560700416564941;-0.2108570000000003;0.04259647142384943;0.09572964893070844;5.703685855645272
57;0.8716115951538086;-0.2108570000000003;0.04259647142384943;0.09175416517112753;5.701252058714805
58;0.8873326778411865;-0.20885700000000007;0.04259647142384943;0.09175416517112753;5.706119652575739
59;0.9029505252838135;-0.2068570000000003;0.04259647142384943;0.08777868141154661;5.69638446485387
60;0.9185833930969238;-0.20785700000000018;0.04259647142384943;0.09175416517112753;5.693950667923404
61;0.9342520236968994;-0.21185700000000018;0.04259647142384943;0.09572964893070844;5.701252058714805
62;0.9500019550323486;-0.2068570000000003;0.041086172479591544;0.09175416517112753;5.6988182617843375
63;0.9656307697296143;-0.20885700000000007;0.041086172479591544;0.09175416517112753;5.6988182617843375
64;0.9812667369842529;-0.2108570000000003;0.04259647142384943;0.09175416517112753;5.69638446485387
65;0.997004508972168;-0.21285700000000007;0.041086172479591544;0.09175416517112753;5.701252058714805
66;1.012798547744751;-0.2098570000000004;0.041086172479591544;0.09572964893070844;5.706119652575739
67;1.0285701751708984;-0.20785700000000018;0.04259647142384943;0.09175416517112753;5.6988182617843375
68;1.044389247894287;-0.21185700000000018;0.041086172479591544;0.09175416517112753;5.693950667923404
69;1.0601317882537842;-0.21185700000000018;0.04259647142384943;0.09175416517112753;5.6988182617843375
70;1.075880765914917;-0.21185700000000018;0.04410677036810732;0.09572964893070844;5.703685855645272
71;1.091634750366211;-0.21285700000000007;0.04410677036810732;0.09175416517112753;5.701252058714805
72;1.1076104640960693;-0.2138570000000004;0.04410677036810732;0.09175416517112753;5.6988182617843375
73;1.1235523223876953;-0.2138570000000004;0.04259647142384943;0.09175416517112753;5.6988182617843375
74;1.1393492221832275;-0.2098570000000004;0.04410677036810732;0.09175416517112753;5.69638446485387
75;1.1552650928497314;-0.21285700000000007;0.04410677036810732;0.09175416517112753;5.703685855645272
76;1.1711058616638184;-0.21285700000000007;0.04410677036810732;0.0838031976519657;5.701252058714805
77;1.187377691268921;-0.2108570000000003;0.04259647142384943;0.09572964893070844;5.6988182617843375
78;1.2033965587615967;-0.2098570000000004;0.04259647142384943;0.09175416517112753;5.689083074062469
79;1.221395492553711;-0.2158570000000002;0.04410677036810732;0.09572964893070844;5.6915168709929365
80;1.2374281883239746;-0.2108570000000003;0.041086172479591544;0.09175416517112753;5.69638446485387
81;1.253399133682251;-0.21185700000000018;0.04410677036810732;0.09175416517112753;5.703685855645272
82;1.2693209648132324;-0.2138570000000004;0.041086172479591544;0.09175416517112753;5.703685855645272
83;1.2852866649627686;-0.21285700000000007;0.04410677036810732;0.09572964893070844;5.703685855645272
84;1.3012166023254395;-0.21185700000000018;0.04259647142384943;0.09572964893070844;5.69638446485387
85;1.3172733783721924;-0.21285700000000007;0.04259647142384943;0.09175416517112753;5.6988182617843375
86;1.3332571983337402;-0.2238570000000002;0.04259647142384943;0.09572964893070844;5.659877510896864
87;1.3546669483184814;-0.2328570000000001;0.04259647142384943;0.09175416517112753;5.6696126986187325
88;1.3757519721984863;-0.2308570000000003;0.04259647142384943;0.09175416517112753;5.667178901688265
89;1.3970286846160889;-0.22985699999999998;0.04410677036810732;0.08777868141154661;5.657443713966397
90;1.418290376663208;-0.2328570000000001;0.04410677036810732;0.09175416517112753;5.6696126986187325
91;1.438096523284912;-0.22085700000000008;0.04410677036810732;0.09175416517112753;5.693950667923404
92;1.4542522430419922;-0.2188570000000003;0.04259647142384943;0.09175416517112753;5.706119652575739
93;1.4703030586242676;-0.2098570000000004;0.04259647142384943;0.08777868141154661;5.6988182617843375
94;1.4864349365234375;-0.21185700000000018;0.04259647142384943;0.0838031976519657;5.69638446485387
95;1.5026049613952637;-0.27685700000000013;0.03957587353533366;1.296325744324145;5.508982101207904
96;1.5622210502624512;-0.2728570000000001;0.4382947948194157;0.9941889785959954;5.667178901688265
97;1.5791800022125244;-0.22485700000000008;0.33106356977710577;0.7556599530211404;5.664745104757798
98;1.5956308841705322;-0.2288570000000001;0.2812237046165955;0.684101245348684;5.667178901688265
99;1.6118667125701904;-0.2268570000000003;0.287264900393627;0.6602483427911985;5.684215480201535
100;1.6283724308013916;-0.2238570000000002;0.300857590891948;0.6642238265507794;5.681781683271068
101;1.6447124481201172;-0.22085700000000008;0.29330609617065856;0.6681993103103603;5.689083074062469
102;1.6609740257263184;-0.22185700000000041;0.2766928077838218;0.6721747940699412;5.681781683271068
103;1.677386999130249;-0.22185700000000041;0.2797134056723376;0.6761502778295221;5.686649277132002
104;1.6938378810882568;-0.2228570000000003;0.2812237046165955;0.6960276966274267;5.69638446485387
105;1.7101197242736816;-0.22085700000000008;0.300857590891948;0.6880767291082649;5.613635369217989
106;1.7327935695648193;-0.2398570000000002;0.27820310672807974;0.6960276966274267;5.6988182617843375
107;1.7491233348846436;-0.22085700000000008;0.3068987866689796;0.6960276966274267;5.706119652575739
108;1.7656161785125732;-0.2148570000000003;0.2887751993378849;0.684101245348684;5.701252058714805
109;1.7819600105285645;-0.2178570000000004;0.2842443025051113;0.6681993103103603;5.69638446485387
110;1.798797845840454;-0.21685700000000008;0.2827340035608534;0.6761502778295221;5.701252058714805
111;1.8151845932006836;-0.2178570000000004;0.2812237046165955;0.6522973752720366;5.6988182617843375
112;1.8316216468811035;-0.2178570000000004;0.27820310672807974;0.6681993103103603;5.706119652575739
113;1.8481004238128662;-0.2158570000000002;0.2842443025051113;0.6443464077528748;5.701252058714805
114;1.8648133277893066;-0.2138570000000004;0.2555486225642114;0.6324199564741321;5.6988182617843375
115;1.8813450336456299;-0.21685700000000008;0.26158981834124295;0.6324199564741321;5.6988182617843375
116;1.8980770111083984;-0.2158570000000002;0.26310011728550087;0.6125425376762275;5.6988182617843375
117;1.9146416187286377;-0.2158570000000002;0.24648682889866408;0.6045915701570657;5.706119652575739
118;1.9312188625335693;-0.2158570000000002;0.2359147362888589;0.6045915701570657;5.701252058714805
119;1.94785475730896;-0.2158570000000002;0.23289413840034312;0.5807386675995801;5.703685855645272
120;1.9645614624023438;-0.2138570000000004;0.2359147362888589;0.5608612488016755;5.6988182617843375
121;1.9812211990356445;-0.2158570000000002;0.23138383945608523;0.5449593137633519;5.703685855645272
122;1.997873067855835;-0.2138570000000004;0.2223220457905379;0.5330328624846091;5.69638446485387
123;2.01458477973938;-0.2158570000000002;0.20570875740370118;0.5131554436867046;5.6988182617843375
124;2.031158924102783;-0.2178570000000004;0.21628085001350636;0.4932780248888;5.701252058714805
125;2.0480575561523438;-0.2178570000000004;0.2026881595151854;0.4734006060908954;5.703685855645272
126;2.0647614002227783;-0.21685700000000008;0.1906057679611223;0.445572219773829;5.701252058714805
127;2.08138108253479;-0.2138570000000004;0.17248218063002765;0.4137683496971817;5.6988182617843375
128;2.098252058029175;-0.2158570000000002;0.1573791911874488;0.3938909308992771;5.6988182617843375
129;2.114935874938965;-0.21685700000000008;0.15284829435467515;0.35811157706304886;5.6988182617843375
130;2.131781578063965;-0.22085700000000008;0.1588894901317067;0.3143812557076588;5.6988182617843375
131;2.1487815380096436;-0.2188570000000003;0.13925560385635416;0.30643028818849694;5.6988182617843375
132;2.1656033992767334;-0.2188570000000003;0.1226423154695174;0.30245480442891604;5.69638446485387
133;2.182436466217041;-0.2178570000000004;0.11811141863674375;0.2905283531501733;5.6915168709929365
134;2.1992762088775635;-0.2178570000000004;0.10602902708268065;0.2786019018714306;5.686649277132002
135;2.2161848545074463;-0.2178570000000004;0.16191008802022247;0.10368061644987028;5.723156231089009
136;2.241729736328125;-0.20085700000000006;0.06676125453197561;0.09970513269028937;5.732891418810877
137;2.2586727142333984;-0.19985700000000017;0.06374065664345983;0.09572964893070844;5.725590028019476
138;2.2755374908447266;-0.20085700000000006;0.060720058754944066;0.09970513269028937;5.718288637228074
139;2.294490098953247;-0.2058570000000004;0.0576994608664283;0.09970513269028937;5.720722434158541
140;2.311372995376587;-0.2058570000000004;0.054678862977912523;0.09572964893070844;5.7280238249499424
141;2.3283028602600098;-0.20485700000000007;0.054678862977912523;0.08777868141154661;5.725590028019476
142;2.345170736312866;-0.20485700000000007;0.05165826508939675;0.09175416517112753;5.718288637228074
143;2.362062692642212;-0.2058570000000004;0.05165826508939675;0.09572964893070844;5.715854840297608
144;2.3790953159332275;-0.2068570000000003;0.05165826508939675;0.09175416517112753;5.708553449506206
145;2.3961873054504395;-0.20885700000000007;0.05014796614513887;0.08777868141154661;5.710987246436673
146;2.413266181945801;-0.2068570000000003;0.05165826508939675;0.09175416517112753;5.718288637228074
147;2.4302637577056885;-0.21185700000000018;0.05014796614513887;0.09572964893070844;5.718288637228074
148;2.4474189281463623;-0.21185700000000018;0.04863766720088098;0.09572964893070844;5.715854840297608
149;2.464526653289795;-0.20885700000000007;0.047127368256623094;0.09572964893070844;5.710987246436673
150;2.48154354095459;-0.20885700000000007;0.04863766720088098;0.08777868141154661;5.703685855645272
151;2.4985973834991455;-0.2108570000000003;0.047127368256623094;0.08777868141154661;5.701252058714805
152;2.5157010555267334;-0.22185700000000041;0.045617069312365206;0.08777868141154661;5.693950667923404
153;2.535349130630493;-0.22585699999999997;0.04410677036810732;0.09175416517112753;5.6915168709929365
154;2.5550849437713623;-0.22585699999999997;0.045617069312365206;0.09175416517112753;5.689083074062469
155;2.5748395919799805;-0.2228570000000003;0.045617069312365206;0.08777868141154661;5.689083074062469
156;2.594682455062866;-0.2268570000000003;0.04410677036810732;0.08777868141154661;5.689083074062469
157;2.6145730018615723;-0.22585699999999997;0.04410677036810732;0.0838031976519657;5.679347886340601
158;2.634531021118164;-0.22485700000000008;0.04410677036810732;0.0838031976519657;5.689083074062469
159;2.654463768005371;-0.22585699999999997;0.045617069312365206;0.08777868141154661;5.684215480201535
160;2.6744346618652344;-0.2268570000000003;0.04410677036810732;0.09175416517112753;5.686649277132002
161;2.6944196224212646;-0.2268570000000003;0.045617069312365206;0.09572964893070844;5.684215480201535
162;2.7144672870635986;-0.2288570000000001;0.04259647142384943;0.09175416517112753;5.689083074062469
163;2.7344892024993896;-0.2288570000000001;0.04259647142384943;0.09175416517112753;5.681781683271068
164;2.7545838356018066;-0.22585699999999997;0.04259647142384943;0.08777868141154661;5.6769140894101335
165;2.7746448516845703;-0.2288570000000001;0.04259647142384943;0.08777868141154661;5.6720464955492
166;2.794710636138916;-0.22985699999999998;0.045617069312365206;0.08777868141154661;5.679347886340601
167;2.814807415008545;-0.22985699999999998;0.041086172479591544;0.09175416517112753;5.681781683271068
168;2.834912061691284;-0.2278570000000002;0.04259647142384943;0.0838031976519657;5.681781683271068
169;2.8550198078155518;-0.2288570000000001;0.04259647142384943;0.0838031976519657;5.674480292479667
170;2.8751726150512695;-0.2308570000000003;0.04410677036810732;0.08777868141154661;5.681781683271068
171;2.895324468612671;-0.2268570000000003;0.04259647142384943;0.09175416517112753;5.674480292479667
172;2.9155564308166504;-0.2328570000000001;0.04259647142384943;0.08777868141154661;5.684215480201535
173;2.9358460903167725;-0.2308570000000003;0.04259647142384943;0.09572964893070844;5.6720464955492
174;2.9562900066375732;-0.2318570000000002;0.04259647142384943;0.09175416517112753;5.6769140894101335
175;2.9766886234283447;-0.2328570000000001;0.041086172479591544;0.09175416517112753;5.6769140894101335
176;2.9971446990966797;-0.2308570000000003;0.04259647142384943;0.0838031976519657;5.6720464955492
177;3.017665386199951;-0.22985699999999998;0.041086172479591544;0.09572964893070844;5.6696126986187325
178;3.0381994247436523;-0.2318570000000002;0.04410677036810732;0.08777868141154661;5.674480292479667
179;3.0587680339813232;-0.2358570000000002;0.04259647142384943;0.08777868141154661;5.674480292479667
180;3.0793509483337402;-0.23385699999999998;0.041086172479591544;0.08777868141154661;5.679347886340601
181;3.1000256538391113;-0.2328570000000001;0.041086172479591544;0.08777868141154661;5.6720464955492
182;3.120800495147705;-0.2318570000000002;0.041086172479591544;0.08777868141154661;5.674480292479667
183;3.141479253768921;-0.23485700000000032;0.04259647142384943;0.09175416517112753;5.679347886340601
184;3.162194013595581;-0.2328570000000001;0.041086172479591544;0.07982771389238479;5.6720464955492
185;3.182957887649536;-0.23385699999999998;0.04259647142384943;0.08777868141154661;5.679347886340601
186;3.2037107944488525;-0.23485700000000032;0.04410677036810732;0.08777868141154661;5.679347886340601
187;3.23048734664917;-0.2568570000000001;0.04259647142384943;0.0838031976519657;5.664745104757798
188;3.251364231109619;-0.23785699999999999;0.041086172479591544;0.0838031976519657;5.681781683271068
189;3.2721900939941406;-0.23385699999999998;0.041086172479591544;0.08777868141154661;5.6696126986187325
190;3.293144941329956;-0.2328570000000001;0.041086172479591544;0.09175416517112753;5.6769140894101335
191;3.314147710800171;-0.23485700000000032;0.041086172479591544;0.09175416517112753;5.6696126986187325
192;3.335059404373169;-0.23485700000000032;0.04259647142384943;0.09175416517112753;5.674480292479667
193;3.3558952808380127;-0.23485700000000032;0.041086172479591544;0.08777868141154661;5.674480292479667
194;3.376936912536621;-0.23785699999999999;0.041086172479591544;0.09175416517112753;5.6769140894101335
195;3.398023843765259;-0.23485700000000032;0.03957587353533366;0.09175416517112753;5.674480292479667
196;3.419219732284546;-0.2368570000000001;0.041086172479591544;0.0838031976519657;5.6720464955492
197;3.440366506576538;-0.23385699999999998;0.041086172479591544;0.09175416517112753;5.679347886340601
