;Time;Thrust;BEM pressure;N2O pressure;N2OWeigth
0;0.0;0.047557999999999975;0.7960951868067189;52.641042212822406;5.657631116330045
1;0.016752243041992188;0.04555799999999999;2.0239682284883806;55.82142922048714;5.6503297255386435
2;0.07180261611938477;0.04555799999999999;0.314309823588453;51.73860739939754;5.742814008896392
3;0.08625316619873047;0.044557999999999987;0.314309823588453;51.38876482855442;5.730645024244058
4;0.10068964958190918;0.032557999999999976;0.24483607215259023;51.1224074166625;5.6357269439558415
5;0.11493325233459473;0.043557999999999986;0.20556829960188516;50.93953516372178;5.6503297255386435
6;0.1293165683746338;0.043557999999999986;0.17385202177246956;50.96736355003884;5.718476039591721
7;0.14380121231079102;0.07555799999999999;0.15421813549711705;50.931584196202614;5.662498710190981
8;0.15822768211364746;0.043557999999999986;0.15270783655285916;50.89978032612597;5.657631116330045
9;0.17263221740722656;0.07555799999999999;0.1481769397200855;50.919657744923875;5.557845442180895
10;0.1869809627532959;0.029557999999999973;0.16176963021840648;50.89978032612597;5.256054622802974
11;0.2013871669769287;0.07555799999999999;0.15270783655285916;50.84412355349183;4.97616797579926
12;0.2157878875732422;0.04655799999999999;0.15119753760860127;50.75666291078105;4.927492037189918
13;0.2302112579345703;0.043557999999999986;0.15270783655285916;50.66522678431069;4.920190646398517
14;0.2445850372314453;0.07655799999999999;0.1481769397200855;50.48235453136997;4.6865461410736735
15;0.259082555770874;0.042557999999999985;0.19801680488059575;50.331286148505896;4.321476601503612
16;0.2734389305114746;0.042557999999999985;0.34451580247361074;50.08878163917146;4.418828478722293
17;0.2877933979034424;0.04655799999999999;0.4985662947879152;49.69520874697295;4.6646419686994705
18;0.30216097831726074;0.04055799999999998;0.8519762477442606;49.29766037101486;4.84230914462357
19;0.3168504238128662;0.030557999999999974;1.2099170975333797;48.99949908904629;4.757126252057219
20;0.331193208694458;0.06455799999999998;1.5421828652701146;48.47075974902203;4.854478129275904
21;0.34563255310058594;0.030557999999999974;1.8804898287838812;48.09308879186184;5.051615680643739
22;0.35999202728271484;0.057557999999999984;2.1870805144682324;47.37750171513728;5.156268948653825
23;0.37470579147338867;3.2545580000000003;2.5299183748147724;47.274139137388175;5.1538351517233565
24;0.3891570568084717;4.932558;2.757973515397713;47.03163462805374;5.5164708943629535
25;0.4035325050354004;3.8295580000000005;3.131017354629411;46.6221598008169;5.981326108082168
26;0.41783809661865234;1.536558;3.2956399395535207;46.66191463841271;6.653054060891087
27;0.43213677406311035;0.13055799999999998;3.4209947519269255;46.60625786577858;6.949977286408071
28;0.44657135009765625;0.03855799999999998;3.89673891936816;46.50289528802948;7.2201287456899195
29;0.46087074279785156;0.657558;4.073443895846333;46.39555722652079;6.034869640552444
30;0.47519922256469727;2.8985580000000004;4.192757512442706;46.10534691207138;4.603797045437794
31;0.4895639419555664;4.5635580000000004;4.370972787865137;45.938376594168986;4.131640440927178
32;0.5039443969726562;4.352558;4.59751762950382;45.65214176347916;4.202220551910724
33;0.5182328224182129;2.708558;4.40419936463881;45.548779185730055;4.813103581457963
34;0.5325703620910645;1.205558;4.408730261471583;45.278446290078556;5.30959815527325
35;0.5469861030578613;0.720558;4.694176761936324;45.175083712329446;5.521338488223886
36;0.5613713264465332;1.484558;4.648867793608588;45.020039845705796;5.44345698644894
37;0.5864729881286621;3.6385579999999997;4.420812653025647;44.47937405440279;5.823129307601807
38;0.6008362770080566;3.612558;4.455549528743578;44.3521585740962;6.049472422135249
39;0.6151008605957031;2.7155579999999997;4.295457840652242;44.240845028827934;5.832864495323676
40;0.6294965744018555;1.671558;4.233535583937669;44.113629548521345;5.302296764481849
41;0.64388108253479;1.366558;4.349828602645526;44.08580116220428;4.893418880163377
42;0.6589095592498779;1.934558;4.327174118481658;44.00629148701266;4.8958526770938455
43;0.6776666641235352;2.9785580000000005;5.503696996058552;46.18883207102258;5.190342105680362
44;0.6965024471282959;3.064558;5.194085712485685;46.12522433086929;5.355840296952124
45;0.7152547836303711;2.179558;5.06873090011228;46.00595981808186;5.338803718438857
46;0.7340958118438721;1.672558;5.153307640990722;45.735626922430356;5.2584884197334425
47;0.7528247833251953;1.968558;4.999257148676417;45.620337893402514;5.647895928608175
48;0.7718968391418457;2.5445580000000003;4.917701005686491;45.47324499429802;5.414251423283336
49;0.7906010150909424;2.423558;4.96905116979126;45.3301275789531;4.990770757382062
50;0.8094770908355713;1.960558;4.905618614132428;45.131353390974056;4.932359631050851
51;0.8309078216552734;1.897558;4.934314294073328;45.05184371578244;5.207378684193632
52;0.8496620655059814;2.139558;4.7847946985917975;44.94848113803334;5.421552814074737
53;0.8685240745544434;2.2555579999999997;4.686625267215034;44.76560888509261;5.314465749134186
54;0.8873090744018555;2.011558;4.956968778237196;44.805363722688426;5.187908308749897
55;0.9060482978820801;2.010558;4.736465132375545;44.674172758622255;5.2584884197334425
56;0.924807071685791;2.082558;4.603558825280851;44.42371728176865;5.22684905963737
57;0.9434874057769775;2.038558;4.685114968270777;44.399864379211174;4.956697600355522
58;0.9623723030090332;1.950558;4.742506328152577;44.399864379211174;4.730354485822083
59;0.9813675880432129;1.9435580000000001;4.740996029208318;44.13748245107883;4.878816098580575
60;1.0001814365386963;2.014558;4.61111032000214;44.13350696731925;5.0418804929218695
61;1.0189027786254883;2.014558;4.617151515779172;43.94665923061895;5.178173121028028
62;1.037637710571289;1.920558;4.541636568566278;43.84329665286984;5.068652259157009
63;1.0564558506011963;1.918558;4.5899661347825305;43.75186052639948;4.949396209564121
64;1.0752298831939697;2.016558;4.5250232801794406;43.5610373059396;4.810669784527498
65;1.094031810760498;1.978558;4.455549528743578;43.55706182218002;4.698715125726011
66;1.112741231918335;1.897558;4.56882194956292;43.37021408547972;4.696281328795543
67;1.1315882205963135;1.892558;4.5431468675105355;43.26287602397103;4.725486891961147
68;1.1503891944885254;1.896558;4.327174118481658;43.11180764110696;4.966432788077391
69;1.1691203117370605;1.908558;4.396647869917521;42.94086183944498;5.054049477574207
70;1.1877985000610352;1.853558;4.547677764343309;42.905082485608744;4.956697600355522
71;1.2066214084625244;1.897558;4.333215314258689;42.74208765146593;4.657340577908069
72;1.225334644317627;1.861558;4.401178766750294;42.61884765491892;4.542952122176114
73;1.2441647052764893;1.834558;4.49028640446151;42.52343604468898;4.4285636664441625
74;1.262845754623413;1.888558;4.479714311851704;42.431999918218615;4.51374655901051
75;1.2816357612609863;1.886558;4.351338901589784;42.27298056783538;4.727920688891615
76;1.3004307746887207;1.863558;4.219942893439348;42.102034766173404;4.813103581457963
77;1.3278710842132568;1.839558;4.185206017721416;41.87543219187729;4.7838980182923585
78;1.3466122150421143;1.834558;4.2546797691572795;41.783996065406924;4.479673401983973
79;1.3638343811035156;1.846558;4.241087078658958;41.69255993893657;4.3093076168512745
80;1.3781330585479736;1.859558;4.253169470213021;41.513663169755425;4.284969647546603
81;1.39249849319458;1.833558;4.259210665990053;40.80602706055002;4.34581457080828
82;1.4068942070007324;1.791558;4.303009335373532;40.30114062308325;4.3920567124871575
83;1.4211885929107666;1.801558;4.293947541707984;39.804205153135634;4.615966030090128
84;1.4355270862579346;1.823558;4.292437242763726;39.62928386771407;4.730354485822083
85;1.4499826431274414;1.8205580000000001;4.238066480770443;39.71276902666527;4.696281328795543
86;1.4642701148986816;1.836558;4.22598408921638;40.06261159750839;4.564856294550321
87;1.4785776138305664;1.798558;4.286396046986695;40.42040513587067;4.501577574358176
88;1.4929423332214355;1.792558;4.242597377603216;40.865659316943734;4.28983724140754
89;1.5073487758636475;1.803558;4.179164821944385;41.255256725382665;4.141375628649044
90;1.521576166152954;1.799558;4.099118977898717;41.394398656968;4.226558521215395
91;1.5358388423919678;1.771558;4.221453192383605;41.75219219533028;4.272800662894269
92;1.5501835346221924;1.716558;4.28941664487521;42.018549607222205;4.426129869513694
93;1.5644497871398926;1.762558;4.235045882881927;42.475730239574006;4.484540995844906
94;1.5790753364562988;1.823558;4.161041234613291;42.92495990440665;4.450467838818366
95;1.593423843383789;1.777558;4.1066704726200065;43.195292800058155;4.5259155436628475
96;1.6076653003692627;1.750558;4.164061832501806;43.46165021195007;4.409093291000424
97;1.6219489574432373;1.749558;4.13989704939368;43.6445224648908;4.168147394884183
98;1.636448621749878;1.758558;4.077974792679107;43.910879876782715;4.100001080831106
99;1.6507630348205566;1.741558;3.9390272898073806;44.08580116220428;4.136508034788111
100;1.6650705337524414;1.738558;3.9888671549678905;44.34420760657704;4.192485364188855
101;1.6793851852416992;1.738558;3.9782950623580855;44.4356437330474;4.258197881311467
102;1.6937556266784668;1.744558;4.062871803236527;44.4356437330474;4.336079383086414
103;1.708099365234375;1.726558;4.026624628574338;44.3322811552983;4.387189118626221
104;1.7225399017333984;1.728558;4.005480443354728;44.415766314249495;4.365284946252018
105;1.7369012832641602;1.753558;4.05381000957098;44.41179083048991;4.284969647546603
106;1.7512247562408447;1.748558;4.077974792679107;44.38793792793243;4.165713597953715
107;1.7655494213104248;1.721558;4.0417276180169175;44.39588889545159;4.109736268552972
108;1.7799949645996094;1.738558;3.9631920729155063;44.213016642510865;4.121905253205309
109;1.7942883968353271;1.726558;4.010011340187502;44.10965406476176;4.1559784102318496
110;1.808650016784668;1.6915580000000001;3.979805361302344;44.00231600325308;4.3020062260598735
111;1.8230583667755127;1.6895580000000001;4.071933596902075;43.81944375031236;4.331211789225478
112;1.8374478816986084;1.710558;3.1159143651868324;41.34669285185303;4.36285114932155
113;1.8517005443572998;1.722558;3.1536718387932794;41.22345285530602;4.270366865963801
114;1.866058111190796;1.769558;3.0524818095280013;41.07238447244195;4.226558521215395
115;1.880436658859253;1.727558;2.9905595528134277;40.984923829731166;4.214389536563058
116;1.894766092300415;1.638558;2.9679050686495594;40.976972862212;4.138941831718579
117;1.909186840057373;1.590558;3.123465859908122;40.821928995588344;4.277668256755202
118;1.92356538772583;1.650558;3.097790777855738;40.71459093407966;4.284969647546603
119;1.937891960144043;1.671558;3.1521615398490215;40.61917932384972;4.151110816370913
120;1.9521822929382324;1.713558;3.0630539021378063;40.53569416489852;4.100001080831106
121;1.9665837287902832;1.700558;3.162733632458827;40.53569416489852;4.24602889665913
122;1.9809393882751465;1.708558;3.1929396113439847;40.44028255466858;4.224124724284927
123;1.9953060150146484;1.690558;3.2760060532781683;40.3528219119578;4.160846004092782
124;2.0097506046295166;1.722558;3.333397413159968;40.25741030172786;4.136508034788111
125;2.0240671634674072;1.803558;3.4209947519269255;40.22958191541079;4.136508034788111
126;2.0385055541992188;1.766558;3.41042265931712;40.078513532546715;4.236293708937261
127;2.0529520511627197;1.804558;3.504061193861109;39.98707740607635;4.194919161119323
128;2.068108558654785;1.844558;3.464793421310404;39.89564127960599;4.187617770327922
129;2.0870866775512695;1.867558;3.4723449160316937;39.87178837704851;4.141375628649044
130;2.1058616638183594;1.861558;3.6611322840639295;39.891665795846414;4.041589954499894
131;2.124696731567383;1.968558;3.6369675009558033;39.79625418561647;4.100001080831106
132;2.1435177326202393;1.9495580000000001;3.6988897576703765;39.617357416435325;4.090265893109237
133;2.1622657775878906;1.965558;3.9526199803057014;39.617357416435325;4.087832096178769
134;2.1813368797302246;2.016558;3.9918877528564063;39.52592128996497;4.187617770327922
135;2.200165033340454;2.100558;3.8982492183124178;39.52194580620539;4.12920664399671
136;2.219086170196533;2.095558;4.209370800829543;39.43846064725419;4.019685782125691
137;2.23783802986145;2.103558;4.281865150153921;39.347024520783826;4.002649203612421
138;2.2568254470825195;2.1785579999999998;4.191247213498448;39.347024520783826;4.0221195790561595
139;2.278780937194824;2.250558;4.2003090071639955;39.347024520783826;4.11217006548344
140;2.297576904296875;2.143558;4.195778110331221;39.259563878073045;4.034288563708493
141;2.316434144973755;2.001558;4.120263163118327;39.172103235362265;4.034288563708493
142;2.3352062702178955;2.125558;4.049279112738207;39.16415226784311;4.007516797473354
143;2.3539254665374756;2.1305579999999997;4.093077782121686;39.16415226784311;3.893128341741402
144;2.3725802898406982;2.184558;4.253169470213021;39.084642592651484;3.8298496215492577
