;Time;Thrust;BEM pressure;N2O pressure
0;0.0;18031;52;30
1;0.012379646301269531;18031;52;31
2;0.02324819564819336;18040;52;31
3;0.03412795066833496;18034;54;31
4;0.04499363899230957;18027;61;32
5;0.05595278739929199;18046;74;32
6;0.0667726993560791;18023;44;33
7;0.07767915725708008;18034;74;32
8;0.08859658241271973;18032;53;31
9;0.09958100318908691;18034;51;31
10;0.11045241355895996;18038;43;32
11;0.12132024765014648;18026;77;31
12;0.13228440284729004;18038;54;31
13;0.1431879997253418;18025;75;34
14;0.15411043167114258;18039;64;40
15;0.16501617431640625;18041;53;35
16;0.17597126960754395;18042;51;34
17;0.1869523525238037;18053;51;32
18;0.1978459358215332;18028;51;33
19;0.2087247371673584;18018;75;33
20;0.2197725772857666;18033;61;33
21;0.2307109832763672;18026;53;32
22;0.24158883094787598;18005;69;33
23;0.2525501251220703;18038;51;38
24;0.26348066329956055;18024;69;34
25;0.2743411064147949;18427;52;35
26;0.2851998805999756;18029;52;32
27;0.29613733291625977;18050;56;32
28;0.30709362030029297;18028;51;32
29;0.3180091381072998;18042;50;32
30;0.328906774520874;18015;52;32
31;0.3401162624359131;18039;62;34
32;0.3509945869445801;18033;52;31
33;0.36187148094177246;18017;61;33
34;0.37276697158813477;18042;52;34
35;0.38372111320495605;18038;53;32
36;0.39458799362182617;18028;75;30
37;0.40545058250427246;18030;54;32
38;0.4163939952850342;18035;74;30
39;0.4273543357849121;18034;63;31
40;0.4410872459411621;18015;52;31
41;0.45201778411865234;18022;75;31
42;0.4629173278808594;18020;50;30
43;0.47386789321899414;18024;41;31
44;0.48473620414733887;18021;53;32
45;0.49559807777404785;18029;53;31
46;0.5064585208892822;18006;28;31
47;0.517479658126831;18015;64;32
48;0.5284051895141602;18032;51;31
49;0.5393056869506836;18019;53;31
50;0.5502610206604004;18017;51;32
51;0.5611467361450195;18043;52;32
52;0.572012186050415;18012;52;30
53;0.5829348564147949;18048;75;31
54;0.5938773155212402;18016;52;32
55;0.6047887802124023;18017;52;32
56;0.6156752109527588;18006;51;31
57;0.626591682434082;18022;51;30
58;0.6374943256378174;18002;52;32
59;0.6483588218688965;17984;53;31
60;0.6592614650726318;17986;52;31
61;0.6702146530151367;17983;52;32
62;0.6810975074768066;18030;51;31
63;0.6919410228729248;17973;76;30
64;0.7028863430023193;17979;52;32
65;0.7138068675994873;17986;51;31
66;0.7247323989868164;17982;50;31
67;0.7356448173522949;17981;51;31
68;0.7465085983276367;17994;52;31
69;0.7574219703674316;17982;51;30
70;0.768310546875;17988;30;32
71;0.7792203426361084;17999;52;32
72;0.7901513576507568;17989;76;32
73;0.8010332584381104;18000;64;35
74;0.8119146823883057;17978;52;35
75;0.8228261470794678;17979;63;33
76;0.8337676525115967;17973;76;32
77;0.8446462154388428;17960;52;32
78;0.85552978515625;17966;76;31
79;0.8664500713348389;17919;52;31
80;0.8773858547210693;17927;50;32
81;0.888291597366333;18040;54;32
82;0.899219274520874;17931;52;32
83;0.9102106094360352;17934;69;32
84;0.9211370944976807;17935;52;31
85;0.9320459365844727;17920;58;35
86;0.942941427230835;17936;50;34
87;0.9539086818695068;17928;56;33
88;0.9648106098175049;17915;52;33
89;0.9757132530212402;17933;70;35
90;0.9866108894348145;17938;55;32
91;0.997483491897583;17922;55;33
92;1.008359432220459;17920;54;34
93;1.0193097591400146;17929;53;35
94;1.030261516571045;17933;69;35
95;1.0411419868469238;17908;30;33
96;1.052053689956665;17894;72;30
97;1.0629444122314453;17866;53;31
98;1.0738649368286133;17850;51;32
99;1.084770917892456;17835;52;31
100;1.0956714153289795;17818;68;32
101;1.1065452098846436;17795;52;31
102;1.1174159049987793;17787;53;32
103;1.128319501876831;17771;53;30
104;1.1392459869384766;17739;55;32
105;1.1502025127410889;17735;75;31
106;1.161076545715332;17712;50;31
107;1.171950101852417;17680;54;32
108;1.182851791381836;17647;71;30
109;1.1937832832336426;17928;47;31
110;1.204667091369629;17518;51;30
111;1.2174160480499268;17422;73;31
112;1.2318594455718994;17296;52;31
113;1.2461662292480469;17188;52;32
114;1.260571002960205;17062;67;30
115;1.2749786376953125;16859;58;32
116;1.2893214225769043;16643;53;33
117;1.3037381172180176;16444;76;32
118;1.3182263374328613;16309;51;31
119;1.332657814025879;16111;52;32
120;1.346977710723877;15900;75;31
121;1.361297607421875;15647;51;30
122;1.3758509159088135;15415;51;31
123;1.3903393745422363;15182;53;31
124;1.4046721458435059;14956;52;32
125;1.4190399646759033;14693;74;31
126;1.4335262775421143;14364;70;32
127;1.4478521347045898;14011;66;31
128;1.4622559547424316;13692;51;32
129;1.476564645767212;13392;52;31
130;1.4910030364990234;13076;51;32
131;1.5054268836975098;12716;53;31
132;1.5199921131134033;12224;33;32
133;1.534322738647461;11880;52;33
134;1.5488529205322266;11758;74;34
135;1.5633933544158936;11636;76;32
136;1.577742099761963;11338;75;32
137;1.5921077728271484;10978;76;35
138;1.6064229011535645;10744;75;32
139;1.6208412647247314;10670;53;31
140;1.6353137493133545;10502;73;32
141;1.6497693061828613;10181;75;35
142;1.664074182510376;9847;51;32
143;1.6785178184509277;9601;75;33
144;1.6929612159729004;9394;52;32
145;1.707247018814087;9093;51;32
146;1.721580982208252;8694;50;32
147;1.7359299659729004;8323;52;31
148;1.7504830360412598;8157;75;32
149;1.7649273872375488;8031;68;33
150;1.779287338256836;7868;62;32
151;1.7937250137329102;7677;74;31
152;1.8081064224243164;7584;74;34
153;1.822507381439209;7545;69;33
154;1.8368351459503174;7524;62;31
155;1.8544814586639404;7357;75;31
156;1.8687870502471924;7213;51;32
157;1.8833231925964355;7158;52;31
158;1.8976118564605713;7070;52;33
159;1.9119246006011963;6849;51;33
160;1.92625093460083;6564;51;33
161;1.9406483173370361;6455;63;32
162;1.9549956321716309;6444;50;33
163;1.9692823886871338;6409;54;32
164;1.9836814403533936;6315;74;31
165;1.998034954071045;6230;27;31
166;2.0124034881591797;6135;70;32
167;2.028632402420044;6069;52;35
168;2.043245792388916;6009;76;33
169;2.0574567317962646;6069;97;34
170;2.0717613697052;6115;231;31
171;2.086089849472046;6168;453;33
172;2.100550889968872;6163;550;33
173;2.1149702072143555;6174;608;32
174;2.1293108463287354;6196;709;32
175;2.1437230110168457;6202;759;33
176;2.158095359802246;6205;777;33
177;2.172553539276123;6063;777;32
178;2.186872720718384;5968;776;32
179;2.201240301132202;5952;777;33
180;2.215696334838867;6032;797;32
181;2.2302143573760986;5947;795;31
182;2.244565725326538;5941;786;32
183;2.2588863372802734;5988;787;32
184;2.273440361022949;6002;799;32
185;2.2877707481384277;6024;800;33
186;2.302119255065918;6020;777;33
187;2.3164446353912354;6304;800;33
188;2.3308937549591064;5983;799;33
189;2.345299005508423;5903;800;32
190;2.3597142696380615;5849;801;33
191;2.3739798069000244;5853;822;33
192;2.3884921073913574;5806;807;34
193;2.402864456176758;5660;800;32
194;2.417863607406616;5883;822;34
195;2.4322280883789062;5315;821;34
196;2.4465439319610596;5378;821;32
197;2.4609131813049316;5377;834;32
198;2.47528076171875;5410;822;33
199;2.489682674407959;5415;840;35
200;2.5039844512939453;5445;843;32
201;2.5184853076934814;5585;821;33
202;2.532942533493042;5490;842;33
203;2.547290802001953;5497;821;31
204;2.561572551727295;5553;844;30
205;2.5758612155914307;5590;821;31
206;2.5903730392456055;5624;822;31
207;2.6046864986419678;5651;820;31
208;2.619088888168335;5734;824;34
209;2.6335091590881348;5760;842;32
210;2.6477320194244385;5757;841;34
211;2.662245988845825;5775;843;31
212;2.676574468612671;5813;841;33
213;2.6909446716308594;5811;821;33
214;2.7053422927856445;5817;826;32
215;2.719877243041992;5845;834;32
216;2.734227418899536;5821;841;33
217;2.748624801635742;5838;835;32
218;2.763056993484497;5842;842;34
219;2.77734375;5840;820;31
220;2.7916603088378906;5834;842;32
221;2.8059089183807373;5823;846;32
222;2.8204896450042725;5788;842;33
223;2.8348920345306396;5752;844;33
224;2.84928822517395;5695;843;33
225;2.863699436187744;5607;832;33
226;2.8780782222747803;5520;842;36
227;2.892453670501709;5442;842;36
228;2.906752824783325;5410;843;35
229;2.9210925102233887;5386;842;36
230;2.9355006217956543;5332;842;32
231;2.9499192237854004;5239;841;32
232;2.964229106903076;5219;844;32
233;2.978627920150757;5264;842;33
234;2.993058681488037;5243;842;32
235;3.0072898864746094;5182;843;34
236;3.0215260982513428;5079;842;34
237;3.035865068435669;5049;842;34
238;3.050358533859253;5023;842;34
239;3.0646636486053467;4950;841;38
240;3.0790793895721436;4833;842;33
241;3.09346604347229;4813;841;34
242;3.1078569889068604;4817;842;35
243;3.122102975845337;4729;841;31
244;3.1364479064941406;4632;841;36
245;3.150871753692627;4635;821;32
246;3.1652915477752686;4685;820;31
247;3.179739236831665;4701;844;32
248;3.1940462589263916;4716;842;32
249;3.208451747894287;4760;842;33
250;3.222834587097168;4769;844;32
251;3.2372803688049316;4867;841;32
252;3.251650094985962;4887;842;33
253;3.265974998474121;4954;842;32
254;3.2804977893829346;5005;841;32
255;3.2949252128601074;5018;843;32
256;3.3092851638793945;5083;842;35
257;3.3237805366516113;5177;842;31
258;3.3382043838500977;5443;844;32
259;3.352525234222412;5342;843;33
260;3.3668274879455566;5397;833;32
261;3.381148338317871;5520;843;32
262;3.3955001831054688;5615;843;32
263;3.409916877746582;5652;841;34
264;3.42411732673645;5742;843;34
265;3.441856861114502;5993;822;33
266;3.456138849258423;5950;842;33
267;3.4705567359924316;5930;821;34
268;3.484957456588745;5929;843;32
269;3.499317169189453;5937;843;33
270;3.5137100219726562;6039;843;33
271;3.528228282928467;6198;844;32
272;3.5425705909729004;6438;842;34
273;3.55684757232666;6407;842;33
274;3.5711374282836914;6492;842;32
275;3.5855205059051514;6563;843;33
276;3.599942207336426;6634;843;31
277;3.6142382621765137;6843;843;31
278;3.628713846206665;7109;842;32
279;3.6430587768554688;7626;844;33
280;3.657383680343628;7167;842;33
281;3.671719789505005;7157;843;35
282;3.686035633087158;7188;842;34
283;3.700524091720581;7208;842;35
284;3.7149147987365723;7175;842;32
285;3.7292776107788086;7187;844;32
286;3.7436904907226562;7257;841;32
287;3.758146047592163;7135;841;32
288;3.772552967071533;7165;842;36
289;3.7868847846984863;7160;844;35
290;3.801248788833618;7179;843;34
291;3.8156495094299316;7153;842;33
292;3.8302767276763916;7136;842;32
293;3.8445937633514404;7155;843;39
294;3.85888671875;7149;821;34
295;3.8734261989593506;7161;841;32
296;3.887763738632202;7152;843;32
297;3.902111291885376;7157;841;31
298;3.916412353515625;7106;844;32
299;3.930851697921753;7091;843;32
300;3.945279598236084;7028;842;32
301;3.9597203731536865;6937;843;32
302;3.9740638732910156;6891;843;31
303;3.9884769916534424;6859;843;32
304;4.002888917922974;6867;842;32
305;4.017253160476685;6869;842;32
306;4.031607389450073;6871;841;32
307;4.045937776565552;6879;843;33
308;4.060455322265625;6882;855;31
309;4.07477068901062;6873;823;32
310;4.089198589324951;6885;841;33
311;4.103586912155151;6881;842;34
312;4.117963075637817;6879;842;35
313;4.132430791854858;6873;842;32
314;4.146756172180176;6875;844;33
315;4.161086559295654;6837;843;32
316;4.175464630126953;6807;827;32
317;4.189886808395386;6748;843;31
318;4.204183101654053;6732;845;32
319;4.2185680866241455;6654;843;32
320;4.233135938644409;6530;843;34
321;4.2474870681762695;6501;843;33
322;4.2618889808654785;6535;844;32
323;4.276174306869507;6507;821;32
324;4.290618419647217;6512;841;32
325;4.3050315380096436;6406;841;32
326;4.319396734237671;6197;830;32
327;4.333873748779297;6028;844;33
328;4.3482985496521;5999;834;32
329;4.362751483917236;6041;845;32
330;4.377128601074219;6012;842;33
331;4.391469717025757;5945;842;33
332;4.405776500701904;5765;842;33
333;4.420376777648926;5610;841;35
334;4.434758901596069;5540;841;34
335;4.449177026748657;5508;842;32
336;4.463639974594116;5449;843;33
337;4.478018045425415;5430;843;31
338;4.492316484451294;5410;831;31
339;4.506656885147095;5432;844;33
340;4.521015882492065;5311;840;32
341;4.535520792007446;5071;841;33
342;4.549988508224487;4925;841;33
343;4.564348936080933;4973;844;34
344;4.578760862350464;4823;844;32
345;4.593305587768555;4772;841;34
346;4.60763692855835;4793;843;31
347;4.62198805809021;4779;842;32
348;4.636289596557617;4833;842;32
349;4.650736331939697;4917;844;33
350;4.665186405181885;5571;844;34
351;4.679562568664551;6172;842;35
352;4.694058418273926;7145;843;32
353;4.708495378494263;7968;842;31
354;4.722945213317871;8515;841;32
355;4.737557649612427;8941;844;34
356;4.7519690990448;9683;841;30
357;4.766331195831299;11133;842;30
358;4.780787944793701;11747;843;32
359;4.7952399253845215;12561;843;33
360;4.809668064117432;12844;842;33
361;4.824027061462402;12912;843;33
362;4.838534116744995;13183;843;34
363;4.852952003479004;13762;841;32
364;4.8672473430633545;14371;843;31
365;4.88158917427063;14520;822;34
366;4.895875930786133;14648;820;33
367;4.910545349121094;14868;844;33
368;4.925023555755615;15114;841;34
369;4.939400672912598;15405;843;32
370;4.953855037689209;15548;842;32
371;4.9682652950286865;15667;841;34
372;4.98259973526001;15755;827;34
373;4.996952056884766;15817;842;37
374;5.011288404464722;15923;843;33
375;5.028895854949951;15983;842;33
376;5.04356837272644;15938;841;32
377;5.057892799377441;15886;844;33
378;5.072224378585815;16223;841;31
379;5.086544752120972;15832;840;31
380;5.1009111404418945;15827;843;32
381;5.115411043167114;15807;842;32
382;5.129820346832275;15817;843;33
383;5.144163608551025;15834;843;31
384;5.158570051193237;15904;843;32
385;5.172988176345825;16055;843;38
386;5.187342643737793;16159;844;31
387;5.201663017272949;16306;843;34
388;5.215956449508667;16352;843;33
389;5.230522394180298;16266;843;31
390;5.244953632354736;16220;842;31
391;5.259271144866943;16096;843;32
392;5.2736594676971436;15695;844;37
393;5.288041830062866;15173;845;35
394;5.3024351596832275;14609;842;34
395;5.316683530807495;14143;841;32
396;5.331068992614746;13468;842;35
397;5.345476150512695;12414;828;34
398;5.362272500991821;11049;842;34
399;5.376685857772827;10694;843;35
400;5.391048192977905;10400;831;35
401;5.405492305755615;9462;843;33
402;5.419952392578125;8257;843;32
403;5.434280872344971;7971;844;33
404;5.4486212730407715;8057;843;38
405;5.4631311893463135;7830;843;34
406;5.477511644363403;7451;842;36
407;5.491971492767334;7343;842;32
408;5.506526470184326;7413;843;34
409;5.520951747894287;7450;842;32
410;5.535733938217163;7516;842;32
411;5.550316095352173;7532;844;31
412;5.564685344696045;7575;842;32
413;5.579168319702148;7624;841;34
414;5.593681335449219;7719;843;31
415;5.608156442642212;7969;841;32
416;5.622586727142334;8336;860;34
417;5.637237310409546;8657;843;32
418;5.651638507843018;8888;842;33
419;5.665999889373779;9021;843;34
420;5.680543661117554;9259;842;34
421;5.694993019104004;9454;842;34
422;5.70945405960083;9558;856;33
423;5.7239062786102295;9739;843;34
424;5.7383952140808105;9859;844;33
425;5.753024101257324;9824;843;33
426;5.767385244369507;9809;842;32
427;5.781780481338501;9802;864;32
428;5.796145915985107;9782;842;32
429;5.810585021972656;9767;842;32
430;5.825008392333984;9727;841;35
431;5.83934760093689;9693;864;34
432;5.853760004043579;9610;842;33
433;5.868171453475952;9502;844;35
434;5.882588863372803;9447;842;33
435;5.896923303604126;9445;842;33
436;5.911277770996094;9455;841;30
437;5.925630331039429;9497;842;32
438;5.940223932266235;9497;822;33
439;5.954500675201416;9568;865;30
440;5.968801259994507;9605;842;31
441;5.9833314418792725;9745;838;31
442;5.997621774673462;9883;842;31
443;6.012027025222778;9917;841;32
444;6.02629280090332;10257;846;33
445;6.040741920471191;9871;841;34
446;6.055170297622681;9858;820;36
447;6.069501638412476;9886;843;34
448;6.083884000778198;9876;843;34
449;6.098288297653198;9911;842;32
450;6.1127095222473145;9875;843;35
451;6.127045154571533;9874;842;35
452;6.141385555267334;9889;842;33
453;6.155635118484497;9902;842;33
454;6.170238971710205;9998;842;32
455;6.1845703125;10044;842;35
456;6.198864936828613;10163;843;33
457;6.2133870124816895;10152;844;31
458;6.227680444717407;10129;824;31
459;6.242139577865601;10128;843;32
460;6.256451368331909;10114;842;32
461;6.270886421203613;10089;828;32
462;6.2853028774261475;10080;842;32
463;6.2997190952301025;10265;841;33
464;6.314031600952148;9999;842;33
465;6.32839298248291;10060;843;33
466;6.342963933944702;10119;824;34
467;6.35728120803833;10107;842;34
468;6.371534109115601;10107;841;35
469;6.385837554931641;10021;832;32
470;6.400328636169434;10386;841;35
471;6.414643287658691;9981;842;35
472;6.42890191078186;10006;821;31
473;6.443512678146362;9962;842;31
474;6.457814931869507;9966;842;30
475;6.472143650054932;9972;842;31
476;6.4864442348480225;9957;842;32
477;6.500843524932861;9972;843;31
478;6.515362501144409;9972;841;34
479;6.529785871505737;9985;834;33
480;6.544148206710815;9960;843;33
481;6.558573246002197;9950;843;35
482;6.57294487953186;9917;842;34
483;6.587414026260376;9677;842;32
484;6.60185432434082;9176;843;32
485;6.616180658340454;8766;844;33
486;6.634008169174194;8061;842;34
487;6.648437261581421;7215;841;31
488;6.662882328033447;6676;841;33
489;6.677273511886597;6253;843;33
490;6.691609144210815;5632;843;33
491;6.705931901931763;5006;844;32
492;6.720442533493042;4399;842;35
493;6.734738111495972;4142;843;32
494;6.7491655349731445;3746;843;33
495;6.763611555099487;3016;843;31
496;6.778020143508911;2353;842;31
497;6.792308568954468;2072;842;32
498;6.806574106216431;1842;842;31
499;6.8209755420684814;1466;854;33
500;6.835453748703003;1162;844;33
501;6.849902868270874;1084;844;36
502;6.864189386367798;983;843;32
503;6.878605127334595;827;842;35
504;6.893048286437988;722;842;33
505;6.907385587692261;687;865;32
506;6.9217119216918945;661;842;33
507;6.93602728843689;588;841;34
508;6.9505133628845215;521;842;39
509;6.964937448501587;486;842;34
510;6.979280948638916;463;842;32
511;6.993675947189331;441;842;34
512;7.00820517539978;434;842;35
513;7.022617340087891;430;842;32
514;7.036990404129028;430;841;34
515;7.0514075756073;428;841;32
516;7.0657641887664795;427;841;32
517;7.080344915390015;425;842;32
518;7.094741106033325;424;841;31
519;7.109226226806641;424;842;36
520;7.12371826171875;424;842;33
521;7.138309955596924;424;844;31
522;7.15283203125;423;841;33
523;7.167283058166504;423;841;35
524;7.1817240715026855;425;845;34
525;7.196105480194092;424;842;33
526;7.210703134536743;424;842;33
527;7.225241184234619;422;834;31
528;7.2398529052734375;424;840;31
529;7.254271984100342;422;843;31
530;7.2687201499938965;422;841;31
531;7.283321857452393;422;843;30
532;7.297734260559082;421;842;31
533;7.3121373653411865;422;843;31
534;7.326547384262085;422;840;31
535;7.341002702713013;423;843;31
536;7.355491638183594;422;842;33
537;7.369997501373291;421;843;34
538;7.384390830993652;421;843;37
539;7.3987743854522705;420;843;32
540;7.4133141040802;420;841;31
541;7.427647590637207;421;856;33
542;7.442140340805054;421;845;32
543;7.456448078155518;421;844;35
544;7.470901012420654;421;841;32
545;7.485347032546997;420;842;35
546;7.499848127365112;420;842;36
547;7.514219522476196;421;842;35
548;7.528668403625488;420;841;33
549;7.543435096740723;420;842;34
550;7.557809114456177;421;842;36
551;7.57221531867981;420;842;35
552;7.586570739746094;421;842;33
553;7.601011037826538;421;843;32
554;7.615708351135254;420;842;32
555;7.630353212356567;421;842;33
556;7.644779205322266;421;823;33
557;7.659303188323975;421;843;35
558;7.673788070678711;422;841;33
559;7.688173532485962;421;840;31
560;7.702550888061523;422;841;33
561;7.716952085494995;421;840;37
562;7.731364011764526;421;842;35
563;7.745771646499634;421;842;32
564;7.760358095169067;420;823;33
565;7.774739503860474;421;842;33
566;7.789198637008667;421;842;34
567;7.803709506988525;421;843;34
568;7.818162679672241;421;842;35
569;7.832637786865234;421;845;31
570;7.84698486328125;422;842;32
571;7.861392021179199;423;843;31
572;7.875815153121948;424;844;32
573;7.890444755554199;424;842;35
574;7.904944658279419;427;842;34
575;7.919378757476807;428;841;33
576;7.934012174606323;439;841;33
577;7.948523759841919;430;843;34
578;7.963040828704834;429;840;35
579;7.977472543716431;429;854;38
580;7.99199914932251;429;842;33
581;8.00642728805542;427;841;32
582;8.020914077758789;428;841;36
583;8.035530805587769;433;844;37
584;8.049977540969849;428;843;33
585;8.064376592636108;428;841;33
