;Time;Thrust;BEM pressure;N2O pressure
0;0.0;90155;260;150
1;0.012379646301269531;90155;260;155
2;0.02324819564819336;90200;260;155
3;0.03412795066833496;90170;270;155
4;0.04499363899230957;90135;305;160
5;0.05595278739929199;90230;370;160
6;0.0667726993560791;90115;220;165
7;0.07767915725708008;90170;370;160
8;0.08859658241271973;90160;265;155
9;0.09958100318908691;90170;255;155
10;0.11045241355895996;90190;215;160
11;0.12132024765014648;90130;385;155
12;0.13228440284729004;90190;270;155
13;0.1431879997253418;90125;375;170
14;0.15411043167114258;90195;320;200
15;0.16501617431640625;90205;265;175
16;0.17597126960754395;90210;255;170
17;0.1869523525238037;90265;255;160
18;0.1978459358215332;90140;255;165
19;0.2087247371673584;90090;375;165
20;0.2197725772857666;90165;305;165
21;0.2307109832763672;90130;265;160
22;0.24158883094787598;90025;345;165
23;0.2525501251220703;90190;255;190
24;0.26348066329956055;90120;345;170
25;0.2743411064147949;92135;260;175
26;0.2851998805999756;90145;260;160
27;0.29613733291625977;90250;280;160
28;0.30709362030029297;90140;255;160
29;0.3180091381072998;90210;250;160
30;0.328906774520874;90075;260;160
31;0.3401162624359131;90195;310;170
32;0.3509945869445801;90165;260;155
33;0.36187148094177246;90085;305;165
34;0.37276697158813477;90210;260;170
35;0.38372111320495605;90190;265;160
36;0.39458799362182617;90140;375;150
37;0.40545058250427246;90150;270;160
38;0.4163939952850342;90175;370;150
39;0.4273543357849121;90170;315;155
40;0.4410872459411621;90075;260;155
41;0.45201778411865234;90110;375;155
42;0.4629173278808594;90100;250;150
43;0.47386789321899414;90120;205;155
44;0.48473620414733887;90105;265;160
45;0.49559807777404785;90145;265;155
46;0.5064585208892822;90030;140;155
47;0.517479658126831;90075;320;160
48;0.5284051895141602;90160;255;155
49;0.5393056869506836;90095;265;155
50;0.5502610206604004;90085;255;160
51;0.5611467361450195;90215;260;160
52;0.572012186050415;90060;260;150
53;0.5829348564147949;90240;375;155
54;0.5938773155212402;90080;260;160
55;0.6047887802124023;90085;260;160
56;0.6156752109527588;90030;255;155
57;0.626591682434082;90110;255;150
58;0.6374943256378174;90010;260;160
59;0.6483588218688965;89920;265;155
60;0.6592614650726318;89930;260;155
61;0.6702146530151367;89915;260;160
62;0.6810975074768066;90150;255;155
63;0.6919410228729248;89865;380;150
64;0.7028863430023193;89895;260;160
65;0.7138068675994873;89930;255;155
66;0.7247323989868164;89910;250;155
67;0.7356448173522949;89905;255;155
68;0.7465085983276367;89970;260;155
69;0.7574219703674316;89910;255;150
70;0.768310546875;89940;150;160
71;0.7792203426361084;89995;260;160
72;0.7901513576507568;89945;380;160
73;0.8010332584381104;90000;320;175
74;0.8119146823883057;89890;260;175
75;0.8228261470794678;89895;315;165
76;0.8337676525115967;89865;380;160
77;0.8446462154388428;89800;260;160
78;0.85552978515625;89830;380;155
79;0.8664500713348389;89595;260;155
80;0.8773858547210693;89635;250;160
81;0.888291597366333;90200;270;160
82;0.899219274520874;89655;260;160
83;0.9102106094360352;89670;345;160
84;0.9211370944976807;89675;260;155
85;0.9320459365844727;89600;290;175
86;0.942941427230835;89680;250;170
87;0.9539086818695068;89640;280;165
88;0.9648106098175049;89575;260;165
89;0.9757132530212402;89665;350;175
90;0.9866108894348145;89690;275;160
91;0.997483491897583;89610;275;165
92;1.008359432220459;89600;270;170
93;1.0193097591400146;89645;265;175
94;1.030261516571045;89665;345;175
95;1.0411419868469238;89540;150;165
96;1.052053689956665;89470;360;150
97;1.0629444122314453;89330;265;155
98;1.0738649368286133;89250;255;160
99;1.084770917892456;89175;260;155
100;1.0956714153289795;89090;340;160
101;1.1065452098846436;88975;260;155
102;1.1174159049987793;88935;265;160
103;1.128319501876831;88855;265;150
104;1.1392459869384766;88695;275;160
105;1.1502025127410889;88675;375;155
106;1.161076545715332;88560;250;155
107;1.171950101852417;88400;270;160
108;1.182851791381836;88235;355;150
109;1.1937832832336426;89640;235;155
110;1.204667091369629;87590;255;150
111;1.2174160480499268;87110;365;155
112;1.2318594455718994;86480;260;155
113;1.2461662292480469;85940;260;160
114;1.260571002960205;85310;335;150
115;1.2749786376953125;84295;290;160
116;1.2893214225769043;83215;265;165
117;1.3037381172180176;82220;380;160
118;1.3182263374328613;81545;255;155
119;1.332657814025879;80555;260;160
120;1.346977710723877;79500;375;155
121;1.361297607421875;78235;255;150
122;1.3758509159088135;77075;255;155
123;1.3903393745422363;75910;265;155
124;1.4046721458435059;74780;260;160
125;1.4190399646759033;73465;370;155
126;1.4335262775421143;71820;350;160
127;1.4478521347045898;70055;330;155
128;1.4622559547424316;68460;255;160
129;1.476564645767212;66960;260;155
130;1.4910030364990234;65380;255;160
131;1.5054268836975098;63580;265;155
132;1.5199921131134033;61120;165;160
133;1.534322738647461;59400;260;165
134;1.5488529205322266;58790;370;170
135;1.5633933544158936;58180;380;160
136;1.577742099761963;56690;375;160
137;1.5921077728271484;54890;380;175
138;1.6064229011535645;53720;375;160
139;1.6208412647247314;53350;265;155
140;1.6353137493133545;52510;365;160
141;1.6497693061828613;50905;375;175
142;1.664074182510376;49235;255;160
143;1.6785178184509277;48005;375;165
144;1.6929612159729004;46970;260;160
145;1.707247018814087;45465;255;160
146;1.721580982208252;43470;250;160
147;1.7359299659729004;41615;260;155
148;1.7504830360412598;40785;375;160
149;1.7649273872375488;40155;340;165
150;1.779287338256836;39340;310;160
151;1.7937250137329102;38385;370;155
152;1.8081064224243164;37920;370;170
153;1.822507381439209;37725;345;165
154;1.8368351459503174;37620;310;155
155;1.8544814586639404;36785;375;155
156;1.8687870502471924;36065;255;160
157;1.8833231925964355;35790;260;155
158;1.8976118564605713;35350;260;165
159;1.9119246006011963;34245;255;165
160;1.92625093460083;32820;255;165
161;1.9406483173370361;32275;315;160
162;1.9549956321716309;32220;250;165
163;1.9692823886871338;32045;270;160
164;1.9836814403533936;31575;370;155
165;1.998034954071045;31150;135;155
166;2.0124034881591797;30675;350;160
167;2.028632402420044;30345;260;175
168;2.043245792388916;30045;380;165
169;2.0574567317962646;30345;485;170
170;2.0717613697052;30575;1155;155
171;2.086089849472046;30840;2265;165
172;2.100550889968872;30815;2750;165
173;2.1149702072143555;30870;3040;160
174;2.1293108463287354;30980;3545;160
175;2.1437230110168457;31010;3795;165
176;2.158095359802246;31025;3885;165
177;2.172553539276123;30315;3885;160
178;2.186872720718384;29840;3880;160
179;2.201240301132202;29760;3885;165
180;2.215696334838867;30160;3985;160
181;2.2302143573760986;29735;3975;155
182;2.244565725326538;29705;3930;160
183;2.2588863372802734;29940;3935;160
184;2.273440361022949;30010;3995;160
185;2.2877707481384277;30120;4000;165
186;2.302119255065918;30100;3885;165
187;2.3164446353912354;31520;4000;165
188;2.3308937549591064;29915;3995;165
189;2.345299005508423;29515;4000;160
190;2.3597142696380615;29245;4005;165
191;2.3739798069000244;29265;4110;165
192;2.3884921073913574;29030;4035;170
193;2.402864456176758;28300;4000;160
194;2.417863607406616;29415;4110;170
195;2.4322280883789062;26575;4105;170
196;2.4465439319610596;26890;4105;160
197;2.4609131813049316;26885;4170;160
198;2.47528076171875;27050;4110;165
199;2.489682674407959;27075;4200;175
200;2.5039844512939453;27225;4215;160
201;2.5184853076934814;27925;4105;165
202;2.532942533493042;27450;4210;165
203;2.547290802001953;27485;4105;155
204;2.561572551727295;27765;4220;150
205;2.5758612155914307;27950;4105;155
206;2.5903730392456055;28120;4110;155
207;2.6046864986419678;28255;4100;155
208;2.619088888168335;28670;4120;170
209;2.6335091590881348;28800;4210;160
210;2.6477320194244385;28785;4205;170
211;2.662245988845825;28875;4215;155
212;2.676574468612671;29065;4205;165
213;2.6909446716308594;29055;4105;165
214;2.7053422927856445;29085;4130;160
215;2.719877243041992;29225;4170;160
216;2.734227418899536;29105;4205;165
217;2.748624801635742;29190;4175;160
218;2.763056993484497;29210;4210;170
219;2.77734375;29200;4100;155
220;2.7916603088378906;29170;4210;160
221;2.8059089183807373;29115;4230;160
222;2.8204896450042725;28940;4210;165
223;2.8348920345306396;28760;4220;165
224;2.84928822517395;28475;4215;165
225;2.863699436187744;28035;4160;165
226;2.8780782222747803;27600;4210;180
227;2.892453670501709;27210;4210;180
228;2.906752824783325;27050;4215;175
229;2.9210925102233887;26930;4210;180
230;2.9355006217956543;26660;4210;160
231;2.9499192237854004;26195;4205;160
232;2.964229106903076;26095;4220;160
233;2.978627920150757;26320;4210;165
234;2.993058681488037;26215;4210;160
235;3.0072898864746094;25910;4215;170
236;3.0215260982513428;25395;4210;170
237;3.035865068435669;25245;4210;170
238;3.050358533859253;25115;4210;170
239;3.0646636486053467;24750;4205;190
240;3.0790793895721436;24165;4210;165
241;3.09346604347229;24065;4205;170
242;3.1078569889068604;24085;4210;175
243;3.122102975845337;23645;4205;155
244;3.1364479064941406;23160;4205;180
245;3.150871753692627;23175;4105;160
246;3.1652915477752686;23425;4100;155
247;3.179739236831665;23505;4220;160
248;3.1940462589263916;23580;4210;160
249;3.208451747894287;23800;4210;165
250;3.222834587097168;23845;4220;160
251;3.2372803688049316;24335;4205;160
252;3.251650094985962;24435;4210;165
253;3.265974998474121;24770;4210;160
254;3.2804977893829346;25025;4205;160
255;3.2949252128601074;25090;4215;160
256;3.3092851638793945;25415;4210;175
257;3.3237805366516113;25885;4210;155
258;3.3382043838500977;27215;4220;160
259;3.352525234222412;26710;4215;165
260;3.3668274879455566;26985;4165;160
261;3.381148338317871;27600;4215;160
262;3.3955001831054688;28075;4215;160
263;3.409916877746582;28260;4205;170
264;3.42411732673645;28710;4215;170
265;3.441856861114502;29965;4110;165
266;3.456138849258423;29750;4210;165
267;3.4705567359924316;29650;4105;170
268;3.484957456588745;29645;4215;160
269;3.499317169189453;29685;4215;165
270;3.5137100219726562;30195;4215;165
271;3.528228282928467;30990;4220;160
272;3.5425705909729004;32190;4210;170
273;3.55684757232666;32035;4210;165
274;3.5711374282836914;32460;4210;160
275;3.5855205059051514;32815;4215;165
276;3.599942207336426;33170;4215;155
277;3.6142382621765137;34215;4215;155
278;3.628713846206665;35545;4210;160
279;3.6430587768554688;38130;4220;165
280;3.657383680343628;35835;4210;165
281;3.671719789505005;35785;4215;175
282;3.686035633087158;35940;4210;170
283;3.700524091720581;36040;4210;175
284;3.7149147987365723;35875;4210;160
285;3.7292776107788086;35935;4220;160
286;3.7436904907226562;36285;4205;160
287;3.758146047592163;35675;4205;160
288;3.772552967071533;35825;4210;180
289;3.7868847846984863;35800;4220;175
290;3.801248788833618;35895;4215;170
291;3.8156495094299316;35765;4210;165
292;3.8302767276763916;35680;4210;160
293;3.8445937633514404;35775;4215;195
294;3.85888671875;35745;4105;170
295;3.8734261989593506;35805;4205;160
296;3.887763738632202;35760;4215;160
297;3.902111291885376;35785;4205;155
298;3.916412353515625;35530;4220;160
299;3.930851697921753;35455;4215;160
300;3.945279598236084;35140;4210;160
301;3.9597203731536865;34685;4215;160
302;3.9740638732910156;34455;4215;155
303;3.9884769916534424;34295;4215;160
304;4.002888917922974;34335;4210;160
305;4.017253160476685;34345;4210;160
306;4.031607389450073;34355;4205;160
307;4.045937776565552;34395;4215;165
308;4.060455322265625;34410;4275;155
309;4.07477068901062;34365;4115;160
310;4.089198589324951;34425;4205;165
311;4.103586912155151;34405;4210;170
312;4.117963075637817;34395;4210;175
313;4.132430791854858;34365;4210;160
314;4.146756172180176;34375;4220;165
315;4.161086559295654;34185;4215;160
316;4.175464630126953;34035;4135;160
317;4.189886808395386;33740;4215;155
318;4.204183101654053;33660;4225;160
319;4.2185680866241455;33270;4215;160
320;4.233135938644409;32650;4215;170
321;4.2474870681762695;32505;4215;165
322;4.2618889808654785;32675;4220;160
323;4.276174306869507;32535;4105;160
324;4.290618419647217;32560;4205;160
325;4.3050315380096436;32030;4205;160
326;4.319396734237671;30985;4150;160
327;4.333873748779297;30140;4220;165
328;4.3482985496521;29995;4170;160
329;4.362751483917236;30205;4225;160
330;4.377128601074219;30060;4210;165
331;4.391469717025757;29725;4210;165
332;4.405776500701904;28825;4210;165
333;4.420376777648926;28050;4205;175
334;4.434758901596069;27700;4205;170
335;4.449177026748657;27540;4210;160
336;4.463639974594116;27245;4215;165
337;4.478018045425415;27150;4215;155
338;4.492316484451294;27050;4155;155
339;4.506656885147095;27160;4220;165
340;4.521015882492065;26555;4200;160
341;4.535520792007446;25355;4205;165
342;4.549988508224487;24625;4205;165
343;4.564348936080933;24865;4220;170
344;4.578760862350464;24115;4220;160
345;4.593305587768555;23860;4205;170
346;4.60763692855835;23965;4215;155
347;4.62198805809021;23895;4210;160
348;4.636289596557617;24165;4210;160
349;4.650736331939697;24585;4220;165
350;4.665186405181885;27855;4220;170
351;4.679562568664551;30860;4210;175
352;4.694058418273926;35725;4215;160
353;4.708495378494263;39840;4210;155
354;4.722945213317871;42575;4205;160
355;4.737557649612427;44705;4220;170
356;4.7519690990448;48415;4205;150
357;4.766331195831299;55665;4210;150
358;4.780787944793701;58735;4215;160
359;4.7952399253845215;62805;4215;165
360;4.809668064117432;64220;4210;165
361;4.824027061462402;64560;4215;165
362;4.838534116744995;65915;4215;170
363;4.852952003479004;68810;4205;160
364;4.8672473430633545;71855;4215;155
365;4.88158917427063;72600;4110;170
366;4.895875930786133;73240;4100;165
367;4.910545349121094;74340;4220;165
368;4.925023555755615;75570;4205;170
369;4.939400672912598;77025;4215;160
370;4.953855037689209;77740;4210;160
371;4.9682652950286865;78335;4205;170
372;4.98259973526001;78775;4135;170
373;4.996952056884766;79085;4210;185
374;5.011288404464722;79615;4215;165
375;5.028895854949951;79915;4210;165
376;5.04356837272644;79690;4205;160
377;5.057892799377441;79430;4220;165
378;5.072224378585815;81115;4205;155
379;5.086544752120972;79160;4200;155
380;5.1009111404418945;79135;4215;160
381;5.115411043167114;79035;4210;160
382;5.129820346832275;79085;4215;165
383;5.144163608551025;79170;4215;155
384;5.158570051193237;79520;4215;160
385;5.172988176345825;80275;4215;190
386;5.187342643737793;80795;4220;155
387;5.201663017272949;81530;4215;170
388;5.215956449508667;81760;4215;165
389;5.230522394180298;81330;4215;155
390;5.244953632354736;81100;4210;155
391;5.259271144866943;80480;4215;160
392;5.2736594676971436;78475;4220;185
393;5.288041830062866;75865;4225;175
394;5.3024351596832275;73045;4210;170
395;5.316683530807495;70715;4205;160
396;5.331068992614746;67340;4210;175
397;5.345476150512695;62070;4140;170
398;5.362272500991821;55245;4210;170
399;5.376685857772827;53470;4215;175
400;5.391048192977905;52000;4155;175
401;5.405492305755615;47310;4215;165
402;5.419952392578125;41285;4215;160
403;5.434280872344971;39855;4220;165
404;5.4486212730407715;40285;4215;190
405;5.4631311893463135;39150;4215;170
406;5.477511644363403;37255;4210;180
407;5.491971492767334;36715;4210;160
408;5.506526470184326;37065;4215;170
409;5.520951747894287;37250;4210;160
410;5.535733938217163;37580;4210;160
411;5.550316095352173;37660;4220;155
412;5.564685344696045;37875;4210;160
413;5.579168319702148;38120;4205;170
414;5.593681335449219;38595;4215;155
415;5.608156442642212;39845;4205;160
416;5.622586727142334;41680;4300;170
417;5.637237310409546;43285;4215;160
418;5.651638507843018;44440;4210;165
419;5.665999889373779;45105;4215;170
420;5.680543661117554;46295;4210;170
421;5.694993019104004;47270;4210;170
422;5.70945405960083;47790;4280;165
423;5.7239062786102295;48695;4215;170
424;5.7383952140808105;49295;4220;165
425;5.753024101257324;49120;4215;165
426;5.767385244369507;49045;4210;160
427;5.781780481338501;49010;4320;160
428;5.796145915985107;48910;4210;160
429;5.810585021972656;48835;4210;160
430;5.825008392333984;48635;4205;175
431;5.83934760093689;48465;4320;170
432;5.853760004043579;48050;4210;165
433;5.868171453475952;47510;4220;175
434;5.882588863372803;47235;4210;165
435;5.896923303604126;47225;4210;165
436;5.911277770996094;47275;4205;150
437;5.925630331039429;47485;4210;160
438;5.940223932266235;47485;4110;165
439;5.954500675201416;47840;4325;150
440;5.968801259994507;48025;4210;155
441;5.9833314418792725;48725;4190;155
442;5.997621774673462;49415;4210;155
443;6.012027025222778;49585;4205;160
444;6.02629280090332;51285;4230;165
445;6.040741920471191;49355;4205;170
446;6.055170297622681;49290;4100;180
447;6.069501638412476;49430;4215;170
448;6.083884000778198;49380;4215;170
449;6.098288297653198;49555;4210;160
450;6.1127095222473145;49375;4215;175
451;6.127045154571533;49370;4210;175
452;6.141385555267334;49445;4210;165
453;6.155635118484497;49510;4210;165
454;6.170238971710205;49990;4210;160
455;6.1845703125;50220;4210;175
456;6.198864936828613;50815;4215;165
457;6.2133870124816895;50760;4220;155
458;6.227680444717407;50645;4120;155
459;6.242139577865601;50640;4215;160
460;6.256451368331909;50570;4210;160
461;6.270886421203613;50445;4140;160
462;6.2853028774261475;50400;4210;160
463;6.2997190952301025;51325;4205;165
464;6.314031600952148;49995;4210;165
465;6.32839298248291;50300;4215;165
466;6.342963933944702;50595;4120;170
467;6.35728120803833;50535;4210;170
468;6.371534109115601;50535;4205;175
469;6.385837554931641;50105;4160;160
470;6.400328636169434;51930;4205;175
471;6.414643287658691;49905;4210;175
472;6.42890191078186;50030;4105;155
473;6.443512678146362;49810;4210;155
474;6.457814931869507;49830;4210;150
475;6.472143650054932;49860;4210;155
476;6.4864442348480225;49785;4210;160
477;6.500843524932861;49860;4215;155
478;6.515362501144409;49860;4205;170
479;6.529785871505737;49925;4170;165
480;6.544148206710815;49800;4215;165
481;6.558573246002197;49750;4215;175
482;6.57294487953186;49585;4210;170
483;6.587414026260376;48385;4210;160
484;6.60185432434082;45880;4215;160
485;6.616180658340454;43830;4220;165
486;6.634008169174194;40305;4210;170
487;6.648437261581421;36075;4205;155
488;6.662882328033447;33380;4205;165
489;6.677273511886597;31265;4215;165
490;6.691609144210815;28160;4215;165
491;6.705931901931763;25030;4220;160
492;6.720442533493042;21995;4210;175
493;6.734738111495972;20710;4215;160
494;6.7491655349731445;18730;4215;165
495;6.763611555099487;15080;4215;155
496;6.778020143508911;11765;4210;155
497;6.792308568954468;10360;4210;160
498;6.806574106216431;9210;4210;155
499;6.8209755420684814;7330;4270;165
500;6.835453748703003;5810;4220;165
501;6.849902868270874;5420;4220;180
502;6.864189386367798;4915;4215;160
503;6.878605127334595;4135;4210;175
504;6.893048286437988;3610;4210;165
505;6.907385587692261;3435;4325;160
506;6.9217119216918945;3305;4210;165
507;6.93602728843689;2940;4205;170
508;6.9505133628845215;2605;4210;195
509;6.964937448501587;2430;4210;170
510;6.979280948638916;2315;4210;160
511;6.993675947189331;2205;4210;170
512;7.00820517539978;2170;4210;175
513;7.022617340087891;2150;4210;160
514;7.036990404129028;2150;4205;170
515;7.0514075756073;2140;4205;160
516;7.0657641887664795;2135;4205;160
517;7.080344915390015;2125;4210;160
518;7.094741106033325;2120;4205;155
519;7.109226226806641;2120;4210;180
520;7.12371826171875;2120;4210;165
521;7.138309955596924;2120;4220;155
522;7.15283203125;2115;4205;165
523;7.167283058166504;2115;4205;175
524;7.1817240715026855;2125;4225;170
525;7.196105480194092;2120;4210;165
526;7.210703134536743;2120;4210;165
527;7.225241184234619;2110;4170;155
528;7.2398529052734375;2120;4200;155
529;7.254271984100342;2110;4215;155
530;7.2687201499938965;2110;4205;155
531;7.283321857452393;2110;4215;150
532;7.297734260559082;2105;4210;155
533;7.3121373653411865;2110;4215;155
534;7.326547384262085;2110;4200;155
535;7.341002702713013;2115;4215;155
536;7.355491638183594;2110;4210;165
537;7.369997501373291;2105;4215;170
538;7.384390830993652;2105;4215;185
539;7.3987743854522705;2100;4215;160
540;7.4133141040802;2100;4205;155
541;7.427647590637207;2105;4280;165
542;7.442140340805054;2105;4225;160
