;Time;Thrust;BEM pressure;N2O pressure;N2OWeigth
0;0.0;-14;33;1527;8550
1;0.016376256942749023;-23;35;1541;8588
2;0.030689001083374023;-23;35;1525;8597
3;0.046181440353393555;-24;35;1547;8559
4;0.06051921844482422;-23;33;1525;8548
5;0.0749659538269043;-23;33;1526;8565
6;0.08933162689208984;-22;33;1527;8590
7;0.1037445068359375;-20;35;1526;8582
8;0.11816549301147461;-22;34;1547;8555
9;0.13265705108642578;-24;33;1527;8553
10;0.14705109596252441;-22;32;1526;8575
11;0.16147589683532715;-22;34;1525;8584
12;0.1760547161102295;-24;35;1547;8570
13;0.1904916763305664;-24;36;1537;8555
14;0.20476555824279785;-22;34;1526;8563
15;0.21907544136047363;-21;32;1526;8578
16;0.23351716995239258;-22;33;1527;8578
17;0.24790596961975098;-23;32;1525;8564
18;0.2624180316925049;-22;33;1526;8553
19;0.27692151069641113;-22;35;1526;8568
20;0.2913944721221924;-23;33;1527;8594
21;0.3059983253479004;-24;33;1526;8578
22;0.320371150970459;-22;35;1526;8546
23;0.33475518226623535;-24;34;1526;8547
24;0.34905195236206055;-22;34;1527;8579
25;0.36369967460632324;-23;34;1526;8596
26;0.37812256813049316;-23;33;1526;8574
27;0.39271044731140137;-22;33;1525;8550
28;0.4070854187011719;-22;34;1549;8554
29;0.4215080738067627;-23;35;1534;8579
30;0.4360671043395996;-23;38;1526;8593
31;0.45050787925720215;-22;34;1547;8573
32;0.4649667739868164;-23;35;1527;8551
33;0.4793243408203125;-24;35;1525;8555
34;0.4937303066253662;-24;33;1526;8578
35;0.5081162452697754;-23;33;1537;8588
36;0.5225908756256104;-23;35;1525;8575
37;0.5369789600372314;-23;36;1530;8560
38;0.5514588356018066;-22;33;1526;8564
39;0.5659916400909424;-23;34;1525;8577
40;0.5804624557495117;-23;33;1527;8575
41;0.5948021411895752;-22;34;1527;8562
42;0.6091711521148682;-24;32;1536;8562
43;0.6237378120422363;-21;32;1526;8585
44;0.6381247043609619;-21;33;1526;8584
45;0.652606725692749;-22;34;1526;8562
46;0.6689391136169434;-22;34;1525;8557
47;0.6879050731658936;-23;34;1548;8587
48;0.7068421840667725;-24;34;1526;8587
49;0.7256810665130615;-23;35;1526;8553
50;0.7446162700653076;-21;32;1525;8569
51;0.7636191844940186;-23;33;1549;8595
52;0.7826282978057861;-23;33;1529;8572
53;0.8015131950378418;-25;34;1527;8548
54;0.8206465244293213;-23;37;1525;8593
55;0.8446676731109619;-23;34;1525;8579
56;0.8633496761322021;-22;33;1526;8549
57;0.8778135776519775;-24;34;1525;8557
58;0.8922903537750244;-24;33;1526;8586
59;0.9067151546478271;-23;35;1526;8590
60;0.9211080074310303;-23;34;1525;8566
61;0.9355778694152832;-25;33;1537;8551
62;0.9500415325164795;-23;33;1525;8572
63;0.9644684791564941;-22;33;1525;8599
64;0.9788813591003418;-21;33;1527;8576
65;0.9936552047729492;-21;33;1525;8544
66;1.0080649852752686;-23;35;1908;8572
67;1.0641298294067383;-25;403;1856;8555
68;1.0786356925964355;-25;246;1729;8570
69;1.0935578346252441;-23;215;1687;8587
70;1.107938528060913;-22;155;1663;8591
71;1.1222562789916992;-21;128;1608;8574
72;1.1366591453552246;-21;108;1597;8566
73;1.1509990692138672;-23;98;1596;8591
74;1.1653568744659424;-22;100;1609;8607
75;1.1797995567321777;-22;109;1606;8606
76;1.194169282913208;-22;131;1623;8588
77;1.208585262298584;-21;144;1636;8568
78;1.222923994064331;-23;136;1644;8571
79;1.2372727394104004;-24;159;1652;8579
80;1.2517025470733643;-23;173;1670;8579
81;1.266162395477295;-21;192;1659;8563
82;1.280651330947876;-22;208;1660;8552
83;1.2951171398162842;-23;253;1637;8557
84;1.309643030166626;-22;304;1618;8557
85;1.324021816253662;-22;344;1639;8565
86;1.338472604751587;-22;419;1629;8567
87;1.3528985977172852;-21;496;1595;8563
88;1.3672282695770264;-23;575;1592;8574
89;1.381798267364502;-20;688;1569;8598
90;1.3963348865509033;-23;811;1568;8609
91;1.4107067584991455;-22;910;1544;8600
92;1.4252126216888428;-20;1025;1543;8594
93;1.4396474361419678;-19;1138;1544;8596
94;1.4540174007415771;-23;1269;1519;8590
95;1.4683818817138672;-21;1352;1510;8592
96;1.4828598499298096;-21;1478;1487;8596
97;1.4973106384277344;-22;1578;1473;8595
98;1.5117244720458984;-21;1679;1469;8589
99;1.5262794494628906;-23;1761;1464;8588
100;1.540635108947754;-22;1843;1463;8602
101;1.5551211833953857;-22;1917;1418;8609
102;1.5696001052856445;-22;1991;1435;8596
103;1.5885660648345947;-22;2083;1410;8602
104;1.6075899600982666;-21;2153;1386;8603
105;1.6264369487762451;-21;2219;1285;8595
106;1.6511354446411133;-19;2189;1252;8618
107;1.671097755432129;-21;2243;1253;8602
108;1.6864509582519531;-21;2276;1252;8592
109;1.7008585929870605;-20;2305;1230;8600
110;1.7152915000915527;-19;2336;1207;8614
111;1.7297213077545166;-20;2365;1207;8612
112;1.7440972328186035;-23;2391;1205;8587
113;1.7585420608520508;-22;2417;1206;8581
114;1.7729969024658203;-20;2427;1197;8593
115;1.7873525619506836;-23;2440;1184;8613
116;1.801727533340454;-23;2456;1185;8580
117;1.8161702156066895;-23;2475;1184;8560
118;1.830538034439087;-21;2488;1162;8578
119;1.8450698852539062;-19;2496;1162;8596
120;1.8595397472381592;-22;2504;1150;8595
121;1.8739075660705566;-20;2495;1154;8571
122;1.8882904052734375;-20;2503;1139;8561
123;1.9027209281921387;-21;2524;1139;8584
124;1.9170739650726318;-22;2515;1116;8587
125;1.9314699172973633;-22;2500;1116;8569
126;1.9460134506225586;-20;2507;1124;8559
127;1.9604041576385498;-20;2508;1116;8566
128;1.9746983051300049;-19;2494;1114;8579
129;1.9890658855438232;-21;2501;1116;8580
130;2.003553867340088;-18;2488;1093;8577
131;2.0179805755615234;-17;2471;1073;8579
132;2.032501459121704;-21;2464;1077;8590
133;2.0469391345977783;-21;2465;1072;8582
134;2.061347007751465;-18;2467;1049;8573
135;2.0758228302001953;-18;2459;1066;8571
136;2.090252637863159;-18;2447;1072;8578
137;2.104661464691162;-19;2440;1049;8587
138;2.1212158203125;-19;2436;1049;8583
139;2.1357154846191406;-19;2405;1050;8576
140;2.150050401687622;-19;2407;1050;8577
141;2.164417266845703;-19;2400;1026;8588
142;2.17885422706604;-20;2376;1043;8586
143;2.1933279037475586;-18;2366;1004;8581
144;2.2076776027679443;-18;2378;1018;8576
145;2.2220304012298584;-18;2355;1025;8578
146;2.236433267593384;-19;2333;1006;8578
147;2.250771999359131;-21;2328;1005;8572
148;2.2652029991149902;-17;2324;988;8584
149;2.2796647548675537;-19;2306;1004;8586
150;2.2940673828125;-16;2298;982;8583
151;2.3084843158721924;-19;2297;1002;8586
152;2.3284096717834473;-16;2276;981;8582
153;2.343712568283081;-16;2264;982;8587
154;2.3580894470214844;-18;2252;982;8585
155;2.3732244968414307;-18;2236;959;8578
156;2.3922603130340576;-18;2228;959;8579
157;2.411158323287964;-22;2202;936;8591
158;2.4301083087921143;-18;2183;912;8583
159;2.449012517929077;-19;2149;937;8592
160;2.4678711891174316;-17;2163;936;8589
161;2.486776351928711;-17;2134;913;8587
162;2.505688428878784;-17;2126;911;8584
163;2.524501323699951;-17;2127;925;8588
164;2.543428421020508;-19;2112;901;8584
165;2.5623772144317627;-15;2088;890;8591
166;2.581371307373047;-15;2083;866;8591
167;2.6003222465515137;-14;2059;890;8592
168;2.6191442012786865;-16;2061;890;8587
169;2.6380743980407715;-15;2030;866;8585
170;2.6570231914520264;-16;2013;867;8582
171;2.676213264465332;-15;2014;844;8575
172;2.695117235183716;-19;1970;845;8577
173;2.713933229446411;-17;1968;845;8577
174;2.7328872680664062;-17;1968;845;8575
175;2.7517383098602295;-19;1945;845;8569
176;2.7706382274627686;-16;1945;846;8565
177;2.7894792556762695;-16;1921;824;8559
178;2.808319330215454;-20;1921;824;8556
179;2.827266216278076;-18;1900;807;8559
180;2.8461782932281494;-18;1904;804;8562
181;2.8650472164154053;-15;1886;802;8562
182;2.883794069290161;-15;1855;802;8567
183;2.9026970863342285;-16;1859;802;8563
184;2.9215240478515625;-15;1846;802;8558
185;2.940539836883545;-18;1805;786;8566
186;2.959364891052246;-16;1811;801;8559
187;2.9781458377838135;-16;1803;792;8561
188;2.9974470138549805;-17;1796;778;8566
189;3.0163869857788086;-18;1773;767;8570
190;3.035295009613037;-15;1760;779;8568
191;3.0541131496429443;-15;1774;778;8570
192;3.0730419158935547;-15;1744;758;8573
193;3.091887950897217;-16;1741;757;8566
194;3.11079478263855;-18;1728;757;8571
195;3.12967586517334;-18;1707;735;8577
196;3.148505687713623;-17;1678;736;8574
197;3.167529821395874;-19;1700;734;8570
198;3.1865427494049072;-16;1663;730;8577
199;3.2054975032806396;-17;1672;712;8577
200;3.2242846488952637;-16;1639;713;8572
201;3.243196725845337;-15;1633;689;8570
202;3.262096643447876;-16;1646;688;8573
203;3.2810065746307373;-15;1621;705;8574
204;3.3000733852386475;-17;1610;669;8572
205;3.3188636302948;-19;1602;713;8575
206;3.3378164768218994;-18;1585;667;8572
207;3.35664439201355;-15;1588;688;8569
208;3.375547409057617;-16;1567;690;8574
209;3.3948745727539062;-18;1541;666;8564
210;3.4137284755706787;-17;1554;666;8564
211;3.432837724685669;-19;1540;646;8570
212;3.451794385910034;-17;1534;645;8571
213;3.470616579055786;-18;1531;643;8570
214;3.489478349685669;-18;1512;645;8567
215;3.508333206176758;-18;1495;645;8562
216;3.5272772312164307;-15;1493;644;8559
217;3.5461761951446533;-17;1464;638;8560
218;3.5650551319122314;-16;1476;624;8558
219;3.583846092224121;-16;1465;622;8564
220;3.6028623580932617;-17;1464;601;8562
221;3.6217942237854004;-16;1436;599;8563
222;3.6407153606414795;-18;1418;622;8557
223;3.6598644256591797;-17;1428;599;8559
224;3.6819820404052734;-17;1402;620;8556
225;3.70094895362854;-17;1401;599;8550
226;3.720003128051758;-17;1383;599;8560
227;3.738801956176758;-16;1366;599;8568
228;3.757722854614258;-16;1375;577;8560
229;3.7765891551971436;-16;1371;598;8545
230;3.7956180572509766;-17;1355;596;8567
231;3.8144338130950928;-15;1343;577;8561
232;3.8406288623809814;-16;1335;565;8541
233;3.8594777584075928;-16;1321;571;8561
234;3.8782896995544434;-16;1320;556;8580
235;3.8938887119293213;-16;1318;554;8559
236;3.9083094596862793;-15;1302;555;8544
237;3.922802209854126;-16;1298;555;8552
238;3.937199115753174;-15;1266;553;8571
239;3.9516618251800537;-16;1275;532;8572
240;3.966120719909668;-19;1283;553;8548
241;3.9804575443267822;-19;1261;534;8550
242;3.995253324508667;-19;1261;555;8561
243;4.009752035140991;-17;1253;552;8570
244;4.0241827964782715;-16;1250;553;8563
245;4.03865647315979;-17;1236;532;8540
246;4.053163528442383;-17;1244;532;8563
247;4.067579030990601;-18;1219;531;8588
248;4.082064867019653;-17;1220;523;8552
249;4.096505880355835;-17;1215;533;8538
250;4.110869407653809;-19;1214;530;8559
251;4.125341415405273;-17;1196;509;8579
252;4.139815092086792;-15;1197;507;8575
253;4.154206991195679;-16;1197;508;8544
254;4.168655633926392;-19;1195;508;8546
255;4.1831214427948;-16;1169;508;8562
256;4.197522163391113;-15;1171;497;8573
257;4.211925029754639;-19;1167;487;8565
258;4.226331949234009;-15;1167;508;8539
259;4.240712404251099;-19;1156;484;8540
260;4.255188465118408;-18;1144;486;8559
261;4.269637107849121;-16;1139;486;8573
262;4.284034729003906;-17;1135;486;8561
263;4.298529863357544;54;1132;487;8532
264;4.312968492507935;-21;1130;486;8537
265;4.3273491859436035;-16;1115;463;8561
266;4.341779947280884;-15;1108;484;8566
267;4.356237888336182;-20;1115;463;8560
268;4.3706135749816895;-16;1097;462;8541
269;4.385176420211792;-16;1093;463;8534
270;4.39970326423645;-20;1081;463;8556
271;4.4141130447387695;-18;1076;464;8557
272;4.428610801696777;-20;1064;446;8553
273;4.4430224895477295;-20;1067;462;8549
274;4.457416534423828;-15;1078;442;8540
275;4.471811056137085;-16;1065;442;8551
276;4.486280918121338;-15;1059;439;8563
277;4.500728607177734;-18;1043;441;8559
278;4.515226602554321;-15;1041;441;8544
279;4.529702425003052;-20;1037;441;8541
280;4.544140100479126;-18;1032;440;8550
281;4.558603763580322;-16;1034;439;8554
282;4.5730016231536865;-17;1027;439;8547
283;4.587392568588257;-15;991;440;8548
284;4.605461359024048;-19;1007;417;8559
285;4.6243813037872314;-17;998;419;8556
286;4.64335298538208;-19;995;418;8552
287;4.662278175354004;-16;982;416;8550
288;4.681159019470215;-16;973;417;8548
289;4.70009183883667;-18;962;418;8564
290;4.718937873840332;-16;965;404;8553
291;4.737833738327026;-16;949;411;8534
292;4.756850719451904;-19;954;408;8568
293;4.7757568359375;-15;950;396;8565
294;4.794540882110596;-17;943;397;8532
295;4.8134918212890625;-16;938;395;8549
296;4.832436561584473;-15;906;396;8568
297;4.85135555267334;-18;929;418;8543
298;4.870304584503174;-17;918;373;8528
299;4.889119386672974;-16;913;373;8577
300;4.908117294311523;-18;906;373;8556
301;4.927061319351196;-18;901;373;8521
302;4.9459991455078125;-14;891;373;8547
303;4.964804172515869;-16;886;373;8575
304;4.983609199523926;-16;871;373;8538
305;5.0026161670684814;-16;869;373;8521
306;5.021405935287476;-15;860;373;8563
307;5.040331840515137;-16;853;373;8561
308;5.059158802032471;-19;858;351;8527
309;5.07821249961853;-20;823;374;8545
310;5.100151538848877;-18;839;350;8555
311;5.119036436080933;-16;837;352;8537
312;5.137926340103149;-18;824;350;8533
313;5.156821250915527;-21;817;350;8552
314;5.175693988800049;-17;806;341;8549
315;5.194514274597168;-16;806;351;8543
316;5.213424921035767;-16;779;330;8538
317;5.232278108596802;-15;801;350;8548
318;5.251136779785156;-17;783;328;8545
319;5.270051956176758;-15;780;328;8540
320;5.288821697235107;-18;774;328;8545
321;5.307906627655029;-17;775;306;8544
322;5.334644794464111;-15;767;328;8548
323;5.353624582290649;-19;759;303;8536
324;5.372547626495361;-21;713;305;8540
325;5.391279458999634;-14;739;305;8564
326;5.407414436340332;-20;744;304;8561
327;5.421825647354126;-16;745;305;8531
328;5.436277151107788;-20;721;305;8521
329;5.450668096542358;-19;721;294;8547
330;5.465151786804199;-15;719;295;8561
331;5.479562520980835;-20;728;304;8550
332;5.493973255157471;-20;710;304;8545
333;5.508443832397461;-20;703;305;8536
334;5.522916793823242;-15;714;304;8547
335;5.537322521209717;-20;708;281;8556
336;5.551781415939331;-18;697;281;8544
337;5.566265106201172;-20;694;305;8536
338;5.580647945404053;-14;693;281;8538
339;5.595210790634155;-16;669;281;8548
340;5.609704494476318;-18;686;282;8550
341;5.624096155166626;-16;682;281;8535
342;5.63870096206665;-16;677;281;8546
343;5.653198957443237;-21;666;282;8549
344;5.667612791061401;-16;667;282;8539
345;5.682093381881714;-17;658;281;8530
346;5.6965649127960205;-19;651;271;8539
347;5.710957765579224;-19;643;263;8555
348;5.725353717803955;-16;654;281;8545
349;5.739808559417725;-16;648;259;8533
350;5.754212141036987;-17;634;261;8533
351;5.768646001815796;-22;641;259;8540
352;5.783115863800049;-21;633;247;8547
353;5.797779560089111;-17;626;268;8541
354;5.812275171279907;-16;635;282;8528
355;5.826678991317749;-17;618;259;8536
356;5.841069936752319;-16;604;260;8544
357;5.855468511581421;-16;611;259;8538
358;5.869937419891357;-18;605;237;8530
359;5.884388208389282;-16;592;239;8532
360;5.898879766464233;-21;605;256;8544
361;5.913349628448486;-18;594;236;8542
362;5.927732229232788;-16;593;237;8532
363;5.942211151123047;-19;589;237;8532
364;5.9565818309783936;-16;597;236;8528
365;5.970885753631592;-17;592;236;8542
366;5.986078500747681;-17;576;236;8546
367;6.0004472732543945;-16;554;235;8535
368;6.014764070510864;-18;576;236;8532
369;6.029149770736694;-16;573;237;8537
370;6.043597459793091;-17;573;215;8547
371;6.0579822063446045;-16;574;214;8544
372;6.0725109577178955;-15;573;237;8525
373;6.086882829666138;-15;537;213;8530
374;6.101218223571777;-16;552;231;8547
375;6.120072364807129;-19;542;225;8551
376;6.138898134231567;-15;553;226;8519
377;6.157818078994751;-16;543;229;8553
378;6.176651954650879;-22;524;215;8553
379;6.195592880249023;-17;510;214;8523
380;6.214557886123657;-16;518;214;8529
381;6.233374834060669;-21;510;214;8560
382;6.252291679382324;-18;522;215;8535
383;6.2711615562438965;-15;515;213;8532
384;6.290055513381958;-19;494;207;8543
385;6.308857440948486;-20;506;214;8547
386;6.327768325805664;-20;497;192;8538
387;6.3465492725372314;-17;494;193;8535
388;6.3654420375823975;-19;488;194;8548
389;6.384299039840698;-15;489;191;8547
390;6.40364408493042;-16;490;200;8534
391;6.422574043273926;-22;469;191;8532
392;6.441354751586914;-16;460;192;8544
393;6.460262775421143;-22;468;191;8548
394;6.479030609130859;-15;462;192;8541
395;6.498129606246948;-19;477;191;8519
396;6.520164251327515;-15;448;191;8544
397;6.539077281951904;-18;446;192;8547
398;6.55802321434021;-20;451;169;8529
399;6.576968193054199;-16;434;169;8521
400;6.595947980880737;-17;437;152;8551
401;6.614774942398071;-17;430;168;8546
402;6.633635759353638;-22;437;169;8509
403;6.652577877044678;-19;425;169;8534
404;6.671376705169678;-18;432;169;8561
405;6.690320730209351;-16;421;169;8521
406;6.709125280380249;-15;418;146;8516
407;6.728046417236328;-16;415;168;8562
408;6.746981382369995;-17;413;168;8548
409;6.765962362289429;-15;406;169;8514
410;6.784815073013306;-16;383;151;8534
411;6.803741931915283;-18;382;147;8557
412;6.82266092300415;-17;396;141;8521
413;6.849874019622803;-17;383;147;8526
414;6.868742942810059;-19;388;147;8555
415;6.887736797332764;-20;378;145;8536
416;6.905848503112793;-18;384;145;8523
417;6.920281410217285;-22;377;158;8527
418;6.934682846069336;-22;355;124;8549
419;6.949107646942139;-17;366;165;8548
420;6.9635584354400635;-17;355;146;8536
421;6.977908134460449;-17;369;145;8526
422;6.992515802383423;-16;359;148;8539
423;7.006970643997192;-22;353;146;8549
424;7.0213353633880615;-17;366;146;8538
425;7.0358240604400635;-16;344;147;8529
426;7.05021071434021;-16;344;123;8531
427;7.0646257400512695;-17;343;123;8535
428;7.079005479812622;-22;349;146;8543
429;7.093482971191406;-21;321;125;8539
430;7.107970714569092;-21;350;146;8529
431;7.1225316524505615;-17;327;109;8529
432;7.136906147003174;-19;330;123;8540
433;7.151317119598389;-16;327;123;8543
434;7.1658008098602295;-16;325;124;8533
435;7.180185556411743;-21;311;123;8531
436;7.194604396820068;-15;327;125;8535
437;7.209023952484131;-15;302;122;8539
438;7.223395824432373;-20;317;123;8542
439;7.2377705574035645;-17;301;100;8535
440;7.252246379852295;-22;305;105;8531
441;7.266629934310913;-17;308;100;8534
442;7.281006574630737;-21;314;122;8537
443;7.295405387878418;-21;302;101;8532
444;7.309927225112915;-19;306;123;8531
445;7.324394941329956;-17;293;101;8528
446;7.338848829269409;-21;269;101;8534
447;7.3533713817596436;-19;294;100;8536
448;7.367774248123169;-19;298;101;8535
449;7.382248878479004;-20;289;100;8527
450;7.39665961265564;-21;280;101;8533
451;7.411092281341553;-17;294;99;8536
452;7.42549204826355;-17;276;95;8534
453;7.4399707317352295;-21;282;101;8536
454;7.454429626464844;-20;283;101;8530
455;7.4688332080841064;-18;282;101;8531
456;7.483344078063965;-18;276;100;8530
457;7.4977147579193115;-20;268;101;8531
458;7.512245416641235;-18;263;100;8537
459;7.5266273021698;-15;271;94;8535
460;7.540986776351929;-16;248;101;8537
461;7.555412769317627;-16;252;78;8532
462;7.569878578186035;-15;266;95;8531
463;7.584327220916748;-16;239;78;8533
464;7.599100112915039;-20;253;77;8532
465;7.614356994628906;-15;244;89;8531
466;7.6332948207855225;-22;248;78;8542
467;7.652211666107178;-15;252;79;8533
468;7.6713948249816895;-18;253;77;8528
469;7.690345764160156;-15;239;93;8536
470;7.7091593742370605;-20;247;79;8536
471;7.728159427642822;-18;247;77;8533
472;7.747140407562256;-17;246;78;8530
473;7.76606822013855;-15;244;78;8539
474;7.784902095794678;-18;243;78;8532
475;7.803769111633301;-22;215;77;8522
476;7.822838068008423;-15;221;79;8534
477;7.841761827468872;-19;231;79;8542
478;7.860700607299805;-22;225;78;8520
479;7.879472732543945;-16;222;66;8530
480;7.898380517959595;-21;217;68;8530
481;7.917291164398193;-20;199;77;8538
482;7.939460039138794;-15;195;78;8523
483;7.958294868469238;-16;222;55;8536
484;7.977142810821533;-16;206;79;8533
485;7.996044635772705;-22;208;55;8537
486;8.014795541763306;-18;214;77;8523
487;8.033618450164795;-15;205;55;8524
488;8.052519083023071;-20;202;79;8540
489;8.071314096450806;-17;201;55;8528
490;8.09021282196045;-19;197;54;8527
491;8.109091758728027;-23;190;56;8542
492;8.127987623214722;-17;203;48;8536
493;8.146911382675171;-17;200;32;8518
494;8.165894508361816;-20;175;54;8530
495;8.184691190719604;-14;164;32;8543
496;8.203606367111206;-16;174;31;8531
497;8.22252607345581;-15;172;55;8521
498;8.241329908370972;-15;182;32;8539
499;8.260257720947266;-19;182;33;8541
500;8.279115676879883;-15;177;32;8521
501;8.298030614852905;-15;169;45;8524
502;8.316953420639038;-22;171;43;8540
