;Time;Thrust;BEM pressure;N2O pressure;N2OWeigth
0;0.0;0.024445999999999996;-0.020842125430758834;11.372527249101541;0.5196862247657101
1;0.016310453414916992;0.012446000000000013;0.004832956621625237;11.364576281582378;0.5050834431829081
2;0.031085968017578125;0.014445999999999987;0.0033226576773673494;11.364576281582378;0.5026496462524399
3;0.04567360877990723;0.021445999999999993;-0.005739135988179968;11.463963375571902;0.5075172401133763
4;0.06035017967224121;0.012446000000000013;0.009363853454398899;11.388429184139865;0.5050834431829081
5;0.07503652572631836;0.012446000000000013;-0.00422883704392208;11.36855176534196;0.5002158493219717
6;0.08955121040344238;0.012446000000000013;-0.014800929653727285;11.372527249101541;0.5026496462524399
7;0.10465788841247559;0.01744599999999999;-0.00422883704392208;11.372527249101541;0.4977820523915071
8;0.11960029602050781;0.007446000000000008;0.007853554510141011;11.28109112263118;0.524553818626643
9;0.13426470756530762;0.0024460000000000037;0.012384451342914667;11.372527249101541;0.5026496462524399
10;0.1489853858947754;0.01044600000000001;-0.008759733876695742;11.372527249101541;0.5123848339743091
11;0.1638777256011963;-0.006554000000000004;0.00030205978885158163;11.380478216620702;0.5026496462524399
12;0.17895126342773438;0.012446000000000013;0.012384451342914667;11.376502732861121;0.5050834431829081
13;0.19388580322265625;0.00044600000000000195;-0.005739135988179968;11.467938859331483;0.4977820523915071
14;0.20890545845031738;0.01044600000000001;-0.01027003282095363;11.380478216620702;0.5196862247657101
15;0.22386598587036133;0.007446000000000008;0.001812358733109469;11.452036924293159;0.5221200216961783
16;0.23899531364440918;0.013446000000000013;0.007853554510141011;11.376502732861121;0.4929144585305707
17;0.2540872097015381;0.011446000000000012;-0.005739135988179968;11.372527249101541;0.517252427835242
18;0.269120454788208;0.013446000000000013;-0.01178033176521151;11.384453700380284;0.4953482554610389
19;0.2841911315917969;0.01744599999999999;-0.002718538099664193;11.376502732861121;0.4977820523915071
20;0.2993357181549072;0.013446000000000013;0.0033226576773673494;11.384453700380284;0.5148186309047773
21;0.3144049644470215;0.0044460000000000055;-0.00422883704392208;11.36855176534196;0.5123848339743091
22;0.3294026851654053;0.011446000000000012;-0.007249434932437855;11.380478216620702;0.524553818626643
23;0.3449881076812744;0.00044600000000000195;-0.01178033176521151;11.380478216620702;0.5099510370438409
24;0.3600468635559082;0.013446000000000013;0.001812358733109469;11.36855176534196;0.5026496462524399
25;0.3753092288970947;-0.0025540000000000007;0.018425647119946216;11.467938859331483;0.524553818626643
26;0.39041757583618164;0.013446000000000013;0.012384451342914667;11.471914343091063;0.5026496462524399
27;0.40564537048339844;0.025445999999999996;0.0033226576773673494;11.388429184139865;0.4953482554610389
28;0.42087769508361816;0.006446000000000007;-0.023862723319274606;11.380478216620702;0.5196862247657101
29;0.4360532760620117;0.014445999999999987;0.051652223893619724;11.491791761888969;0.5123848339743091
30;0.45128297805786133;0.01044600000000001;0.02144624500846199;11.416257570456931;0.5026496462524399
31;0.4665353298187256;0.0044460000000000055;0.025977141841235653;11.428184021735673;0.5050834431829081
32;0.4817378520965576;0.011446000000000012;0.07430670805748801;11.448061440533579;0.5075172401133763
33;0.4969632625579834;0.011446000000000012;-0.0691716916470112;11.563350469561424;0.5196862247657101
34;0.5122668743133545;0.006446000000000007;0.17398643837850852;11.607080790916815;0.4977820523915071
35;0.5276563167572021;0.011446000000000012;0.007853554510141011;11.54347305076352;0.5099510370438409
36;0.5429189205169678;0.008446000000000009;-0.00422883704392208;11.531546599484777;0.5269876155571112
37;0.5584325790405273;0.012446000000000013;0.06524491439194069;11.483840794369806;0.5196862247657101
38;0.573786735534668;0.01044600000000001;0.05920371861490915;11.559374985801844;0.524553818626643
39;0.5891115665435791;0.012446000000000013;0.045611028116588175;11.475889826850645;0.5294214124875793
40;0.6045150756835938;0.0034460000000000046;0.28876915814210785;11.58720337211891;0.5075172401133763
41;0.6198174953460693;0.008446000000000009;-0.06010989798146388;11.559374985801844;0.5196862247657101
42;0.6352629661560059;0.01944599999999999;0.12414657321799827;11.650811112272205;0.47101028615636764
43;0.6506655216217041;0.00944600000000001;0.1437804594933508;11.595154339638071;0.5026496462524399
44;0.6660678386688232;0.021445999999999993;0.05769341967065126;11.626958209714719;0.5050834431829081
45;0.6814696788787842;0.011446000000000012;0.12414657321799827;11.682614982348852;0.5002158493219717
46;0.6968920230865479;0.013446000000000013;0.0758170070017459;11.730320787463823;0.5269876155571112
47;0.7123754024505615;0.006446000000000007;0.007853554510141011;11.638884660993462;0.5050834431829081
48;0.7278251647949219;0.012446000000000013;0.11659507849670883;11.563350469561424;0.4977820523915071
49;0.7432856559753418;0.01744599999999999;0.21778510776198726;11.654786596031785;0.5294214124875793
50;0.7589421272277832;0.011446000000000012;0.03805953339529874;11.650811112272205;0.524553818626643
51;0.774573564529419;0.011446000000000012;0.2117439119849557;11.80585497889586;0.524553818626643
52;0.7900772094726562;0.01044600000000001;0.13924956266057714;11.7979040113767;0.5123848339743091
53;0.8057606220245361;0.011446000000000012;0.37183560007629163;11.869462719049155;0.5075172401133763
54;0.8214020729064941;0.013446000000000013;0.13018776899502982;11.861511751529994;0.5075172401133763
55;0.8369097709655762;0.012446000000000013;0.20721301515218202;12.147746582219819;0.5123848339743091
56;0.8524961471557617;0.007446000000000008;0.1316980679392877;12.135820130941077;0.5123848339743091
57;0.8681826591491699;0.011446000000000012;0.3068927454732025;12.219305289892276;0.5148186309047773
58;0.8839190006256104;0.006446000000000007;0.16190404682444545;12.207378838613533;0.5196862247657101
59;0.9058003425598145;0.00944600000000001;0.2676249729224975;12.199427871094372;0.5123848339743091
60;0.9214379787445068;0.014445999999999987;0.2555425813684344;12.028482069432393;0.5099510370438409
61;0.937096357345581;0.012446000000000013;-0.00422883704392208;11.45601240805274;0.5026496462524399
62;0.9528288841247559;0.012446000000000013;-0.0012082391554063057;11.360600797822798;0.48804686466963787
63;0.9687144756317139;0.013446000000000013;-0.005739135988179968;11.45601240805274;0.5026496462524399
64;0.9845130443572998;0.01044600000000001;0.004832956621625237;11.364576281582378;0.531855209418044
65;1.000260591506958;0.00944600000000001;-0.01782152754224306;11.364576281582378;0.5002158493219717
66;1.0160679817199707;0.005446000000000006;-0.01178033176521151;11.41228208669735;0.4977820523915071
67;1.031968355178833;0.01044600000000001;-0.00422883704392208;11.36855176534196;0.5294214124875793
68;1.0477328300476074;0.013446000000000013;-0.01178033176521151;11.36855176534196;0.5099510370438409
69;1.0634963512420654;0.01044600000000001;-0.00422883704392208;11.360600797822798;0.524553818626643
70;1.0793800354003906;0.01044600000000001;-0.007249434932437855;11.360600797822798;0.5123848339743091
71;1.0952324867248535;0.022445999999999994;-0.002718538099664193;11.364576281582378;0.524553818626643
72;1.111119031906128;0.012446000000000013;-0.00422883704392208;11.452036924293159;0.5002158493219717
73;1.127321481704712;0.01044600000000001;-0.008759733876695742;11.360600797822798;0.517252427835242
74;1.1431689262390137;0.0034460000000000046;-0.02235242437501672;11.360600797822798;0.49048066160010606
75;1.159224510192871;0.01644599999999999;0.007853554510141011;11.364576281582378;0.5123848339743091
76;1.1751961708068848;0.008446000000000009;0.0033226576773673494;11.45601240805274;0.5196862247657101
77;1.1912224292755127;0.012446000000000013;0.012384451342914667;11.380478216620702;0.5075172401133763
78;1.2071270942687988;0.00944600000000001;0.009363853454398899;11.416257570456931;0.5148186309047773
79;1.2251555919647217;0.008446000000000009;0.00030205978885158163;11.36855176534196;0.5415903971399132
80;1.2411558628082275;0.00944600000000001;0.007853554510141011;11.416257570456931;0.5123848339743091
81;1.257089376449585;0.01644599999999999;-0.00422883704392208;11.360600797822798;0.5075172401133763
82;1.2730638980865479;0.005446000000000006;0.007853554510141011;11.396380151659026;0.5099510370438409
83;1.2891395092010498;0.01044600000000001;0.0033226576773673494;11.364576281582378;0.5123848339743091
84;1.3053338527679443;0.01644599999999999;0.013894750287172554;11.459987891812322;0.4977820523915071
85;1.321275234222412;0.015445999999999988;0.006343255565883124;11.356625314063217;0.46127509843449843
86;1.3411705493927002;0.015445999999999988;0.004832956621625237;11.364576281582378;0.5196862247657101
87;1.3624660968780518;0.008446000000000009;0.019935946064204103;11.360600797822798;0.5196862247657101
88;1.3838763236999512;0.024445999999999996;0.05769341967065126;11.36855176534196;0.524553818626643
89;1.405369758605957;0.01644599999999999;0.01691534817568833;11.448061440533579;0.5099510370438409
90;1.42661714553833;0.014445999999999987;0.01087415239865678;11.372527249101541;0.5221200216961783
91;1.4480023384094238;0.014445999999999987;0.006343255565883124;11.364576281582378;0.5002158493219717
92;1.4693946838378906;0.015445999999999988;0.04863162600510395;11.364576281582378;0.47101028615636764
93;1.4907281398773193;0.01644599999999999;0.02748744078549354;11.364576281582378;0.5148186309047773
94;1.512120246887207;0.01744599999999999;0.045611028116588175;11.944996910481192;0.5221200216961783
95;1.5727102756500244;0.020445999999999992;0.4700050314530543;12.36639818899677;0.5196862247657101
96;1.5903689861297607;0.01744599999999999;0.3219957349157814;12.092089809585687;0.5196862247657101
97;1.606546401977539;0.01844599999999999;0.22684690142753458;11.865487235289574;0.4977820523915071
98;1.6228108406066895;0.01944599999999999;0.22080570565050303;11.881389170327898;0.5050834431829081
99;1.6394052505493164;0.01944599999999999;0.22684690142753458;11.941021426721612;0.5075172401133763
100;1.655763864517212;0.022445999999999994;0.23741899403733976;11.984751748077002;0.517252427835242
101;1.6721653938293457;0.01644599999999999;0.22684690142753458;11.893315621606641;0.5440241940703814
102;1.6886827945709229;0.013446000000000013;0.2359086950930819;11.929094975442869;0.5391566002094486
103;1.7051751613616943;0.030446;0.2359086950930819;11.93307045920245;0.475877880017304
104;1.7215986251831055;0.01644599999999999;0.26913527186675534;11.917168524164126;0.4564075045735656
105;1.7384512424468994;0.025445999999999996;0.3416296211911339;11.93307045920245;0.48804686466963787
106;1.7549917697906494;0.03744600000000001;0.40506217684996515;11.952947878000355;0.5123848339743091
107;1.7713623046875;0.107446;0.6648335952623217;11.865487235289574;0.5123848339743091
108;1.7878875732421875;0.229446;0.9955890640547989;11.817781430174604;0.5221200216961783
109;1.8042521476745605;0.405446;1.4214933663355227;11.682614982348852;0.6146043050539269
110;1.820739507675171;0.670446;2.001448160930551;11.559374985801844;0.5975677265406567
111;1.8371000289916992;1.043446;2.6629590985155054;11.491791761888969;0.6486774620804674
112;1.8535935878753662;1.434446;3.230831501556471;11.475889826850645;0.6827506191070043
113;1.8701221942901611;1.731446;3.777559719377826;11.28109112263118;0.6827506191070043
114;1.8868834972381592;1.9274460000000002;4.36808660658266;11.181704028641656;0.7095223853421437
115;1.9034550189971924;2.041446;4.445111852739812;11.181704028641656;0.748463136229617
116;1.920177698135376;2.045446;4.578018159834506;10.990880808181773;0.8068742625608287
117;1.9367759227752686;2.025446;4.733578951093068;10.982929840662612;0.8117418564217616
118;1.9533474445343018;2.048446;4.74717164159139;10.788131136443146;0.7460293392991488
119;1.9700191020965576;2.102446;4.890650041295888;10.76427823388566;0.7095223853421437
120;1.9867823123931885;2.215446;5.049231430442966;10.668866623655719;0.6462436651499992
121;2.0033528804779053;2.304446;4.987309173728393;10.482018886955416;0.658412649802333
122;2.020115375518799;2.252446;5.070375615662577;10.5058717895129;0.6559788528718684
123;2.036796808242798;2.190446;5.219895211144108;10.362754374167988;0.6730154313851386
124;2.0534722805023193;2.2774460000000003;5.114174285046055;10.259391796418884;0.621905695845328
125;2.0701756477355957;2.308446;4.836279279302604;10.144102767391038;0.6876182129679407
126;2.086869239807129;2.131446;4.514585604175675;10.040740189641934;0.7387279485077478
127;2.1035218238830566;1.872446;4.275958370982929;10.012911803324867;0.6535450559414002
128;2.1204562187194824;1.7204460000000001;4.257834783651834;9.889671806777859;0.6949196037593417
129;2.137321710586548;1.795446;4.094722497671983;9.76643181023085;0.6851844160374725
130;2.1542670726776123;1.876446;4.247262691042029;9.714750521356299;0.6462436651499992
131;2.171182632446289;1.9054460000000002;3.9512440979674825;9.519951817136834;0.658412649802333
132;2.1881041526794434;1.7924460000000002;3.8198480898170466;9.19793763261078;0.6486774620804674
133;2.2134783267974854;1.602446;3.6174680312864895;9.19793763261078;0.5367228032789804
134;2.230372905731201;1.676446;3.573669361903011;9.01904086342964;0.6389422743585982
135;2.2472691535949707;1.6934460000000002;3.5555457745719163;8.947482155757182;0.6000015234711249
136;2.2641875743865967;1.678446;3.478520528414764;8.923629253199696;0.5829649449578547
137;2.2811450958251953;1.6014460000000001;3.451335147418122;8.844119578008078;0.5902663357492557
138;2.2981386184692383;1.5624460000000002;3.4362321579755433;8.752683451537717;0.629207086636729
139;2.3171279430389404;1.5794460000000001;3.4075364780346433;8.701002162663166;0.6900520098984053
140;2.3342514038085938;1.602446;3.29577435615956;8.565835714837414;0.6924858068288735
141;2.3513710498809814;1.551446;3.3063464487693652;8.478375072126633;0.7216913699944776
142;2.3684654235839844;1.499446;3.265568377274402;8.386938945656274;0.7435955423686842
143;2.3854737281799316;1.527446;3.2444241920547916;8.347184108060464;0.7533307300905498
144;2.4086430072784424;1.507446;3.2383829962777604;8.29152733542633;0.7314265577163468
145;2.4256937503814697;1.5004460000000002;3.1417238638452556;8.212017660234713;0.7046547914812109
146;2.4426310062408447;1.4604460000000001;3.093394297629003;8.116606050004771;0.6389422743585982
147;2.4597034454345703;1.453446;3.1160487817928715;8.120581533764351;0.5537593817922506
148;2.4767379760742188;1.4154460000000002;3.045064731412751;8.02516992353441;0.5829649449578547
149;2.493720531463623;1.445446;3.013348453583335;7.933733797064048;0.5659283664445844
150;2.510903835296631;1.434446;3.00277636097353;7.9416847645832105;0.5805311480273865
151;2.5305733680725098;1.4134460000000002;2.9544467947572777;7.758812511642487;0.5464579910008496
152;2.5503485202789307;1.3934460000000002;2.9272614137606356;7.659425417652964;0.63650847742813
153;2.57008695602417;1.372446;2.891014239098446;7.667376385172126;0.6243394927757961
154;2.589891195297241;1.374446;2.824561085551099;7.583891226220927;0.5975677265406567
155;2.6097028255462646;1.322446;2.829091982383873;7.484504132231405;0.5951339296101885
156;2.629556179046631;1.336446;2.7414946436169156;7.428847359597271;0.5927001326797239
157;2.649407386779785;1.336446;2.7309225510071102;7.424871875837691;0.63650847742813
158;2.6693239212036133;1.2924460000000002;2.7173298605087894;7.305607363050263;0.6535450559414002
159;2.6892781257629395;1.269446;2.665979696404021;7.222122204099064;0.6316408835671972
160;2.7092666625976562;1.269446;2.6614487995712475;7.134661561388284;0.621905695845328
161;2.729254961013794;1.2364460000000002;2.7143092626202736;7.039249951158342;0.621905695845328
162;2.749293327331543;1.2344460000000002;2.617650130187769;6.947813824687981;0.5975677265406567
163;2.7693326473236084;1.2244460000000001;2.579892656581322;6.947813824687981;0.643809868219531
164;2.7894561290740967;1.2224460000000001;2.5406248840306165;6.85637769821762;0.6048691173320577
165;2.8096115589141846;1.189446;2.4651099368177225;6.768917055506839;0.651111259010932
166;2.8297626972198486;1.1734460000000002;2.4771923283717854;6.697358347834383;0.6754492283156033
167;2.8499343395233154;1.166446;2.430373061099791;6.609897705123603;0.6462436651499992
168;2.8701627254486084;1.174446;2.3563684128311544;6.637726091440669;0.6413760712890664
169;2.890352964401245;1.141446;2.4228215663785013;6.494608676095757;0.6340746804976618
170;2.9105701446533203;1.128446;2.336734526555802;6.494608676095757;0.6389422743585982
171;2.9309144020080566;1.1174460000000002;2.308038846614902;6.407148033384976;0.6267732897062608
172;2.9513049125671387;1.096446;2.3171006402804495;6.315711906914615;0.651111259010932
173;2.9715824127197266;1.0934460000000001;2.217420909959429;6.264030618040064;0.6194718989148598
174;2.9920196533203125;1.0714460000000001;2.2370547962347813;6.160668040290959;0.6632802436632694
175;3.0123848915100098;1.078446;2.2204415078479447;6.140790621493055;0.6146043050539269
176;3.032766342163086;1.055446;2.1645604469104027;6.061280946301436;0.6389422743585982
177;3.053123712539673;1.031446;2.1298235711924716;6.0533299787822745;0.6340746804976618
178;3.073538064956665;1.026446;2.1434162616907924;5.969844819831075;0.629207086636729
179;3.0939505100250244;1.004446;2.187214931074271;5.961893852311913;0.6340746804976618
180;3.114511728286743;1.004446;2.0497777271468034;5.86250675832239;0.6073029142625259
181;3.134993076324463;0.9954459999999999;2.0618601187008667;5.775046115611611;0.6073029142625259
182;3.1555144786834717;0.963446;1.999937861986293;5.779021599371191;0.5902663357492557
183;3.1760220527648926;0.958446;1.9938966662092619;5.695536440419993;0.5634945695141163
184;3.1965692043304443;0.939446;1.9984275630420352;5.6041003139496315;0.5440241940703814
185;3.2170794010162354;0.918446;1.9500979968257832;5.508688703719689;0.5367228032789804
186;3.2377099990844727;0.929446;1.8911963379997254;5.516639671238851;0.5440241940703814
187;3.2584333419799805;0.901446;1.885155142222694;5.4649583823642995;0.5902663357492557
188;3.2791996002197266;0.895446;1.8609903591145678;5.417252577249328;0.5683621633750526
189;3.299952745437622;0.873446;1.842866771783473;5.329791934538548;0.5221200216961783
190;3.3207523822784424;0.861446;1.8020887002885102;5.325816450778967;0.5148186309047773
191;3.3415708541870117;0.8624459999999999;1.779434216124642;5.2343803243086064;0.5196862247657101
192;3.362460136413574;0.835446;1.7582900309050313;5.222453873029863;0.5196862247657101
193;3.383274555206299;0.829446;1.779434216124642;5.146919681597826;0.48074547387823685
194;3.404451847076416;0.823446;1.750738536183742;5.059459038887046;0.48317927080870504
195;3.4253151416778564;0.821446;1.7069398668002633;4.968022912416685;0.4661426922954348
196;3.4461514949798584;0.804446;1.6646514963610424;4.956096461137942;0.4856130677391697
197;3.467010736465454;0.787446;1.6812647847478792;4.896464204744229;0.4856130677391697
198;3.4879939556121826;0.780446;1.6223631259218216;4.876586785946324;0.47344408308683583
199;3.509023427963257;0.757446;1.6057498375349848;4.848758399629257;0.4977820523915071
200;3.530435800552368;0.7474459999999999;1.5725232607613113;4.697690016765183;0.5050834431829081
201;3.5515618324279785;0.748446;1.5619511681515061;4.73346937060141;0.4539737076430974
202;3.572648286819458;0.756446;1.5075804061582223;4.697690016765183;0.5002158493219717
203;3.5938525199890137;0.713446;1.5257039934893168;4.614204857813983;0.48804686466963787
204;3.61509108543396;0.711446;1.4652920357190014;4.610229374054402;0.44180472299076357
205;3.6361641883850098;0.704446;1.483415623050096;4.522768731343622;0.4515399107126328
206;3.6573116779327393;0.697446;1.442637551555133;4.479038409988232;0.475877880017304
207;3.6786391735076904;0.679446;1.4622714378304857;4.419406153594518;0.4369371291298272
