;Time;Thrust;BEM pressure;N2O pressure
0;0.0;613;29;32416
1;0.008018255233764648;613;49;32408
2;0.015316009521484375;613;44;32413
3;0.022619962692260742;613;50;32412
4;0.029911041259765625;614;45;32430
5;0.037201881408691406;613;35;32409
6;0.044515371322631836;612;51;32420
7;0.051804542541503906;613;47;32414
8;0.05911135673522949;613;51;32430
9;0.06640005111694336;613;56;32410
10;0.07368612289428711;613;51;32405
11;0.08097243309020996;614;29;32419
12;0.08826684951782227;612;28;32407
13;0.09555983543395996;613;51;32415
14;0.10284543037414551;613;51;32413
15;0.11013960838317871;612;52;32407
16;0.11750960350036621;612;50;32411
17;0.12480831146240234;613;51;32417
18;0.13210201263427734;613;29;32405
19;0.1393907070159912;612;28;32412
20;0.14668941497802734;613;50;32408
21;0.15397381782531738;612;51;32410
22;0.1612699031829834;612;29;32426
23;0.16856718063354492;613;50;32423
24;0.1758558750152588;613;28;32421
25;0.18314361572265625;614;27;32419
26;0.19043302536010742;614;28;32402
27;0.1977217197418213;612;51;32403
28;0.20505905151367188;613;50;32416
29;0.21234440803527832;613;51;32416
30;0.21963882446289062;613;28;32401
31;0.22694683074951172;613;51;32416
32;0.23424696922302246;614;50;32416
33;0.24154996871948242;612;52;32408
34;0.24884510040283203;612;29;32416
35;0.2561492919921875;613;28;32415
36;0.26346325874328613;614;50;32411
37;0.2707712650299072;612;51;32415
38;0.2780580520629883;612;74;32426
39;0.2853434085845947;613;29;32408
40;0.29262828826904297;613;29;32418
41;0.29991984367370605;612;29;32410
42;0.3072071075439453;612;52;32404
43;0.3144955635070801;613;50;32421
44;0.3217806816101074;614;50;32419
45;0.3290739059448242;613;46;32402
46;0.3363673686981201;613;50;32416
47;0.3436565399169922;613;28;32407
48;0.35094523429870605;613;35;32402
49;0.3582432270050049;612;51;32410
50;0.3655545711517334;614;51;32413
51;0.372875452041626;613;52;32408
52;0.38016462326049805;613;28;32404
53;0.3875091075897217;613;50;32408
54;0.39479684829711914;612;51;32411
55;0.4020810127258301;612;50;32417
56;0.40936994552612305;613;28;32418
57;0.41666150093078613;613;51;32411
58;0.4239492416381836;612;50;32394
59;0.4312434196472168;611;51;32403
60;0.4385371208190918;612;63;32418
61;0.44582414627075195;613;51;32416
62;0.4531242847442627;613;51;32409
63;0.46041083335876465;613;52;32410
64;0.46770429611206055;613;41;32411
65;0.47504329681396484;613;40;32405
66;0.4823322296142578;612;51;32410
67;0.4896204471588135;613;51;32406
68;0.4969053268432617;613;51;32409
69;0.504187822341919;613;51;32409
70;0.5114881992340088;612;44;32400
71;0.5187759399414062;612;51;32406
72;0.5260705947875977;613;52;32427
73;0.533355712890625;612;46;32405
74;0.5406417846679688;613;28;32420
75;0.5479276180267334;612;32;32413
76;0.5552139282226562;612;50;32420
77;0.5624997615814209;612;51;32405
78;0.5698003768920898;613;51;32404
79;0.5771000385284424;612;52;32405
80;0.5843839645385742;613;51;32421
81;0.5917162895202637;612;71;32410
82;0.5990016460418701;613;28;32416
83;0.6062870025634766;612;51;32415
84;0.6135714054107666;614;28;32412
85;0.6208577156066895;612;28;32431
86;0.6281585693359375;612;50;32405
87;0.6354479789733887;614;74;32415
88;0.6427373886108398;613;50;32411
89;0.650026798248291;613;50;32410
90;0.6573128700256348;613;50;32416
91;0.6645998954772949;613;29;32408
92;0.6719052791595459;614;28;32405
93;0.6792745590209961;613;51;32415
94;0.6865649223327637;613;51;32417
95;0.6938483715057373;614;51;32414
96;0.7011373043060303;613;51;32412
97;0.7084295749664307;613;51;32404
98;0.7157385349273682;612;51;32395
99;0.7230648994445801;612;51;32402
100;0.730353832244873;614;52;32419
101;0.7376422882080078;613;51;32409
102;0.744940996170044;613;50;32409
103;0.7546195983886719;613;52;32417
104;0.7635867595672607;613;29;32407
105;0.7716069221496582;612;51;32417
106;0.779566764831543;614;28;32400
107;0.7875380516052246;613;30;32411
108;0.7955176830291748;613;51;32407
109;0.803508996963501;613;50;32407
110;0.8114786148071289;613;38;32411
111;0.8194713592529297;613;51;32413
112;0.8275141716003418;612;51;32405
113;0.8355097770690918;613;51;32416
114;0.8435027599334717;613;40;32411
115;0.8515381813049316;613;27;32409
116;0.8595290184020996;613;42;32408
117;0.8675217628479004;613;51;32412
118;0.8755252361297607;614;35;32411
119;0.8835170269012451;613;51;32403
120;0.8915178775787354;612;31;32411
121;0.8995158672332764;612;29;32413
122;0.9075126647949219;614;51;32410
123;0.9155125617980957;612;51;32409
124;0.9235141277313232;613;50;32421
125;0.9314942359924316;613;38;32415
126;0.939500093460083;614;28;32397
127;0.94753098487854;613;63;32412
128;0.9555246829986572;613;51;32414
129;0.9635210037231445;612;41;32406
130;0.9715127944946289;614;51;32407
131;0.9795048236846924;613;51;32411
132;0.987501859664917;613;51;32400
133;0.9958958625793457;614;49;32413
134;1.003950595855713;614;68;32431
135;1.0121774673461914;613;71;32471
136;1.020186424255371;613;64;32452
137;1.028186321258545;613;89;32454
138;1.036189317703247;614;91;32462
139;1.0441887378692627;612;91;32445
140;1.052236557006836;613;91;32448
141;1.0602302551269531;613;93;32450
142;1.0682322978973389;612;91;32445
143;1.0762302875518799;613;103;32449
144;1.0848510265350342;613;107;32448
145;1.0928354263305664;613;92;32454
146;1.1007647514343262;612;69;32447
147;1.10870361328125;614;84;32444
148;1.116640329360962;613;92;32440
149;1.1245837211608887;613;81;32447
150;1.1325640678405762;613;93;32439
151;1.1405353546142578;613;108;32445
152;1.148542881011963;612;91;32443
153;1.1565721035003662;613;109;32433
154;1.164534568786621;613;92;32446
155;1.1725142002105713;614;94;32440
156;1.1804876327514648;612;92;32428
157;1.1884512901306152;612;92;32441
158;1.1964123249053955;613;92;32430
159;1.2043695449829102;613;93;32450
160;1.2124052047729492;614;81;32442
161;1.2204275131225586;613;93;32433
162;1.2283897399902344;613;102;32441
163;1.2363462448120117;613;70;32441
164;1.244309902191162;614;92;32431
165;1.2523455619812012;614;91;32447
166;1.2603743076324463;613;92;32430
167;1.2683353424072266;613;92;32442
168;1.276296615600586;614;69;32431
169;1.284259557723999;614;92;32440
170;1.2922229766845703;614;70;32432
171;1.3001785278320312;613;92;32439
172;1.3081436157226562;614;92;32433
173;1.3161122798919678;614;85;32433
174;1.3240745067596436;613;110;32427
175;1.3320355415344238;613;89;32437
176;1.339996576309204;613;92;32424
177;1.347954511642456;613;69;32430
178;1.3559672832489014;613;101;32435
179;1.3639378547668457;613;69;32421
180;1.3718993663787842;613;92;32429
181;1.3798596858978271;613;92;32436
182;1.387826681137085;614;92;32434
183;1.3957843780517578;613;92;32428
184;1.403742790222168;613;92;32433
185;1.4117684364318848;612;93;32436
186;1.419801950454712;613;92;32424
187;1.4278271198272705;612;91;32426
188;1.4358091354370117;613;92;32433
189;1.4437754154205322;612;92;32423
190;1.4517738819122314;613;92;32435
191;1.4597935676574707;614;92;32428
192;1.4678120613098145;613;91;32424
193;1.4757742881774902;613;79;32432
194;1.4837684631347656;613;92;32414
195;1.491755485534668;614;91;32431
196;1.4997813701629639;614;92;32412
197;1.5078186988830566;613;92;32414
198;1.5157828330993652;612;92;32424
199;1.52376389503479;613;69;32418
200;1.5317256450653076;612;108;32436
201;1.5397543907165527;613;92;32428
202;1.5477843284606934;612;92;32423
203;1.5557868480682373;613;91;32426
204;1.5637454986572266;613;93;32411
205;1.5717406272888184;613;91;32424
206;1.5797646045684814;613;92;32425
207;1.5877795219421387;613;91;32425
208;1.595785140991211;612;82;32425
209;1.6037659645080566;613;92;32421
210;1.6117374897003174;612;91;32417
211;1.6197726726531982;613;91;32411
212;1.627793550491333;614;69;32427
213;1.6368799209594727;613;70;32417
214;1.6448493003845215;613;70;32430
215;1.6528048515319824;613;92;32416
216;1.6608080863952637;613;93;32435
217;1.6687626838684082;612;92;32413
218;1.6767194271087646;613;92;32418
219;1.6846790313720703;613;69;32432
220;1.692636251449585;613;93;32425
221;1.7005980014801025;612;69;32414
222;1.708557367324829;613;80;32410
223;1.7166295051574707;613;92;32406
224;1.7245945930480957;614;93;32413
225;1.7325525283813477;613;91;32418
226;1.7405142784118652;613;93;32415
227;1.7484729290008545;614;92;32411
228;1.7564430236816406;613;92;32411
229;1.7644078731536865;613;92;32415
230;1.7724828720092773;613;91;32402
231;1.7804999351501465;613;86;32416
232;1.7884657382965088;613;69;32402
233;1.7964308261871338;614;91;32398
234;1.8043909072875977;612;92;32410
235;1.8124170303344727;613;93;32414
236;1.8204288482666016;614;69;32404
237;1.8285002708435059;614;93;32405
238;1.836463451385498;614;93;32418
239;1.8444828987121582;613;69;32413
240;1.8524646759033203;612;92;32408
241;1.8605473041534424;613;69;32415
242;1.8685078620910645;613;92;32416
243;1.8764667510986328;613;91;32404
244;1.8844850063323975;614;92;32405
245;1.8924524784088135;612;69;32405
246;1.900468111038208;614;92;32407
247;1.9084250926971436;613;68;32405
248;1.9164717197418213;614;93;32396
249;1.9245049953460693;613;91;32402
250;1.9324772357940674;612;81;32407
251;1.940504550933838;613;92;32404
252;1.9484646320343018;613;94;32400
253;1.956467628479004;613;92;32404
254;1.9644834995269775;612;92;32416
255;1.972444772720337;614;69;32408
256;1.9804627895355225;611;112;32400
257;1.988422155380249;614;92;32406
258;1.9963924884796143;613;90;32394
259;2.004396438598633;614;100;32396
260;2.0124430656433105;613;91;32414
261;2.020458459854126;612;91;32402
262;2.028423547744751;613;69;32395
263;2.0363850593566895;612;92;32390
264;2.0443460941314697;612;92;32400
265;2.052367925643921;613;102;32406
266;2.0604355335235596;613;92;32395
267;2.068394899368286;612;93;32410
268;2.076354742050171;612;73;32385
269;2.0843169689178467;613;92;32398
270;2.0923376083374023;613;91;32384
271;2.1003451347351074;612;92;32375
272;2.1083109378814697;612;92;32397
273;2.116274356842041;613;115;32396
274;2.1242356300354004;613;92;32394
275;2.1321966648101807;613;93;32382
276;2.1401586532592773;613;93;32398
277;2.1481173038482666;612;91;32405
278;2.1560792922973633;612;93;32381
279;2.1640784740448;612;77;32403
280;2.1720404624938965;613;92;32391
281;2.1799991130828857;614;90;32387
282;2.1879687309265137;612;92;32385
283;2.1959288120269775;613;103;32382
284;2.203888177871704;612;93;32398
285;2.2118473052978516;612;92;32393
286;2.219811201095581;614;76;32383
287;2.2278406620025635;613;92;32382
288;2.2358007431030273;613;92;32400
289;2.243760347366333;614;92;32380
290;2.251723051071167;613;92;32371
291;2.259772539138794;613;91;32375
292;2.2677907943725586;613;69;32372
293;2.2757532596588135;612;92;32385
294;2.2837131023406982;613;92;32383
295;2.2916722297668457;613;93;32371
296;2.2996928691864014;613;92;32375
297;2.307710647583008;613;92;32385
298;2.315676212310791;613;89;32387
299;2.3236348628997803;613;92;32377
300;2.3315951824188232;613;92;32369
301;2.3395562171936035;613;69;32392
302;2.347522020339966;613;91;32378
303;2.3554861545562744;613;93;32378
304;2.3634824752807617;613;92;32386
305;2.3714466094970703;613;93;32381
306;2.3794105052948;612;92;32383
307;2.3873753547668457;613;94;32373
308;2.39534330368042;612;87;32385
309;2.403308868408203;613;92;32368
310;2.4113259315490723;613;92;32387
311;2.41930890083313;613;93;32379
312;2.427278518676758;613;91;32372
313;2.4352495670318604;613;92;32376
314;2.4432127475738525;613;93;32379
315;2.4511983394622803;613;92;32368
316;2.4593427181243896;613;79;32375
317;2.4673497676849365;613;93;32360
318;2.4753177165985107;612;76;32369
319;2.4832828044891357;612;93;32371
320;2.4915294647216797;612;92;32386
321;2.499821662902832;612;68;32379
322;2.507852077484131;612;104;32376
323;2.516903877258301;613;91;32377
324;2.5248966217041016;613;71;32381
325;2.5328657627105713;613;91;32375
326;2.5408241748809814;613;91;32367
327;2.548788070678711;612;80;32365
328;2.5567471981048584;613;92;32365
329;2.5647523403167725;613;93;32380
330;2.5727102756500244;613;92;32381
331;2.5838396549224854;613;91;32374
332;2.5920162200927734;613;92;32362
333;2.599946975708008;613;81;32363
334;2.6079211235046387;613;92;32365
335;2.6158618927001953;612;92;32358
336;2.623793840408325;612;92;32367
337;2.631770610809326;613;93;32382
338;2.639822483062744;612;74;32378
339;2.647859811782837;613;92;32366
340;2.6558263301849365;613;69;32381
341;2.6638219356536865;613;69;32362
342;2.6717898845672607;612;91;32364
343;2.6798059940338135;613;70;32368
344;2.687833786010742;614;80;32363
345;2.695796489715576;612;92;32357
346;2.7037527561187744;613;92;32368
347;2.711712598800659;613;68;32363
348;2.719733238220215;613;92;32360
349;2.7277615070343018;613;68;32354
350;2.735727071762085;612;70;32361
351;2.743690252304077;612;92;32364
352;2.7516541481018066;614;91;32361
353;2.75968074798584;613;86;32369
354;2.767742156982422;612;92;32363
355;2.7757039070129395;613;91;32355
356;2.7836668491363525;613;92;32358
357;2.7916300296783447;613;93;32349
358;2.799694299697876;612;70;32360
359;2.8077259063720703;612;93;32364
360;2.815685510635376;612;69;32358
361;2.8240630626678467;612;91;32355
362;2.8320417404174805;613;68;32352
363;2.840003490447998;613;92;32342
364;2.847961187362671;614;115;32345
365;2.855921745300293;612;84;32362
366;2.8638830184936523;613;92;32347
367;2.8718934059143066;612;92;32351
368;2.879856586456299;614;92;32362
369;2.887885808944702;614;69;32349
370;2.895853281021118;613;92;32354
371;2.903813362121582;614;92;32354
372;2.911768674850464;613;82;32342
373;2.9198086261749268;613;93;32353
374;2.927835464477539;613;80;32345
375;2.935819149017334;613;69;32349
376;2.9437808990478516;612;93;32352
377;2.951738119125366;612;91;32348
378;2.959766149520874;613;85;32358
379;2.967827320098877;613;92;32347
380;2.975792646408081;614;93;32354
381;2.9837541580200195;612;88;32366
382;2.9917190074920654;613;89;32347
383;2.999776601791382;613;69;32347
384;3.007829427719116;614;91;32352
385;3.0157968997955322;613;92;32353
386;3.023761510848999;613;92;32335
387;3.031723976135254;612;92;32343
388;3.039752244949341;613;92;32348
389;3.047772169113159;613;92;32342
390;3.0558650493621826;613;115;32343
391;3.0638277530670166;612;92;32349
392;3.07183575630188;612;92;32351
393;3.079803466796875;614;107;32336
394;3.0878262519836426;613;92;32341
395;3.0957822799682617;613;70;32344
396;3.1037402153015137;613;91;32328
397;3.111696243286133;613;92;32362
398;3.1197142601013184;613;76;32347
399;3.127732992172241;613;92;32333
400;3.135690927505493;612;92;32353
401;3.143648624420166;612;92;32325
402;3.1516125202178955;613;71;32331
403;3.1595726013183594;613;93;32352
404;3.1675679683685303;613;108;32343
405;3.1755423545837402;612;92;32339
406;3.183501720428467;613;93;32341
407;3.191462278366089;613;93;32339
408;3.1994264125823975;613;69;32336
409;3.207388401031494;613;104;32346
410;3.215346336364746;613;69;32342
411;3.223304510116577;613;91;32331
412;3.231266736984253;613;92;32337
413;3.23923397064209;613;92;32336
414;3.247201681137085;613;92;32338
415;3.255187749862671;612;72;32327
416;3.2631454467773438;614;84;32334
417;3.2711455821990967;613;92;32340
418;3.279111623764038;612;93;32335
419;3.287153720855713;614;91;32339
420;3.29516863822937;613;92;32329
421;3.3031318187713623;613;91;32316
422;3.3110945224761963;612;91;32334
423;3.3190550804138184;613;93;32333
424;3.327077627182007;613;92;32329
425;3.335118532180786;613;91;32341
426;3.3430774211883545;613;74;32327
427;3.3510372638702393;613;91;32337
428;3.3589980602264404;612;69;32330
429;3.3670120239257812;614;92;32328
430;3.3750863075256348;613;91;32322
431;3.383047103881836;611;78;32331
432;3.3910045623779297;613;91;32324
433;3.398963689804077;613;92;32325
434;3.4080722332000732;613;91;32334
435;3.416043758392334;613;70;32328
436;3.424001693725586;613;69;32337
437;3.4319655895233154;612;91;32322
438;3.439965009689331;613;92;32333
439;3.447927236557007;612;92;32334
440;3.45588755607605;613;92;32328
441;3.4638442993164062;613;70;32327
442;3.4718871116638184;613;91;32332
443;3.479855537414551;612;87;32315
444;3.487823963165283;613;91;32330
445;3.495784044265747;613;100;32317
446;3.503737688064575;613;69;32315
447;3.511695146560669;613;69;32318
448;3.519740104675293;612;92;32314
449;3.5277698040008545;614;92;32335
450;3.5357301235198975;613;93;32319
451;3.5436854362487793;613;84;32322
452;3.551645040512085;612;93;32322
453;3.5596847534179688;613;93;32319
454;3.5677006244659424;614;71;32323
455;3.575700044631958;613;91;32312
456;3.5836546421051025;613;92;32329
457;3.5916216373443604;614;91;32325
458;3.59958553314209;612;92;32317
459;3.6075439453125;612;92;32328
460;3.615506410598755;613;93;32324
461;3.6234705448150635;613;91;32324
462;3.631442070007324;612;91;32308
463;3.6394083499908447;612;92;32330
464;3.6473686695098877;613;92;32326
465;3.6553380489349365;614;74;32318
466;3.6633071899414062;613;92;32324
467;3.671306848526001;613;91;32309
468;3.6792898178100586;613;92;32321
469;3.687253713607788;612;70;32317
470;3.6952223777770996;613;92;32314
471;3.7031826972961426;613;84;32310
472;3.711141586303711;614;90;32324
473;3.7191028594970703;612;92;32313
474;3.7271804809570312;613;92;32318
475;3.7351934909820557;613;93;32307
476;3.743152618408203;613;69;32316
477;3.751112461090088;613;70;32304
478;3.7590668201446533;612;92;32312
479;3.767085552215576;612;92;32321
480;3.7751400470733643;611;69;32319
481;3.783100128173828;613;91;32313
482;3.791060209274292;612;80;32325
483;3.7990195751190186;613;91;32301
484;3.807040214538574;612;92;32298
485;3.815063953399658;613;70;32308
486;3.823087692260742;613;92;32304
487;3.8310859203338623;613;92;32310
488;3.839059352874756;613;93;32315
489;3.8470888137817383;614;92;32307
490;3.855109214782715;612;94;32310
491;3.863071918487549;613;92;32304
492;3.8710367679595947;613;91;32301
493;3.8790438175201416;613;79;32287
494;3.8870632648468018;613;91;32301
495;3.895080804824829;612;93;32301
496;3.903047561645508;613;92;32303
497;3.9110090732574463;613;69;32302
498;3.9190120697021484;612;92;32296
499;3.927048921585083;612;79;32312
500;3.9350807666778564;612;92;32297
501;3.943058729171753;613;92;32318
502;3.951024055480957;613;92;32313
503;3.9589860439300537;612;89;32305
504;3.9670073986053467;612;75;32301
505;3.9749767780303955;613;70;32298
506;3.982937812805176;614;92;32297
507;3.9908995628356934;612;93;32299
508;3.998866081237793;614;70;32291
509;4.006886959075928;613;51;32260
510;4.0148766040802;612;51;32261
511;4.022848844528198;612;28;32254
512;4.030826568603516;612;28;32250
513;4.038804531097412;612;51;32266
514;4.046777009963989;612;48;32251
515;4.054746150970459;614;35;32248
516;4.062719821929932;613;49;32264
517;4.070691823959351;612;50;32264
518;4.078670024871826;613;52;32262
519;4.090238809585571;612;28;32249
520;4.098212003707886;612;51;32260
521;4.106154680252075;612;51;32268
522;4.114089727401733;612;27;32267
523;4.122035980224609;613;52;32245
524;4.130012512207031;612;50;32258
525;4.138012886047363;613;50;32262
526;4.145994663238525;613;50;32253
527;4.153963088989258;613;39;32256
528;4.161935329437256;612;50;32253
529;4.169908046722412;613;63;32243
530;4.1778881549835205;613;50;32268
531;4.185860872268677;613;32;32258
532;4.1938323974609375;613;51;32268
533;4.201870679855347;612;71;32246
534;4.2098472118377686;613;68;32257
535;4.217894077301025;612;27;32268
536;4.225869417190552;613;50;32265
537;4.233839511871338;612;28;32259
538;4.241868019104004;614;41;32267
539;4.249837160110474;613;28;32247
540;4.2579076290130615;612;41;32256
541;4.265881061553955;612;50;32250
542;4.273848295211792;613;64;32240
543;4.281884431838989;612;27;32264
544;4.2909767627716064;612;50;32258
545;4.298961162567139;613;49;32265
546;4.306928873062134;612;50;32255
547;4.314894676208496;613;39;32262
548;4.322861433029175;613;50;32262
549;4.330830812454224;613;51;32250
550;4.338803768157959;614;28;32262
551;4.346766948699951;613;51;32254
552;4.354732036590576;613;50;32249
553;4.362699508666992;613;51;32270
554;4.37066912651062;612;40;32261
555;4.3786396980285645;613;50;32262
556;4.386613607406616;613;51;32260
557;4.394582986831665;614;27;32248
558;4.402553558349609;613;65;32255
559;4.410522222518921;613;51;32253
560;4.418506622314453;613;50;32258
561;4.426477432250977;613;50;32243
