;Time;Thrust;BEM pressure;N2O pressure
0;0.0;0.614;0.026431729150000007;44.486049931487
1;0.008033275604248047;0.614;-0.007342132813000002;44.480176216363006
2;0.015335798263549805;0.615;0.027900157931;44.48898678904901
3;0.02269721031188965;0.614;-0.004405275250999999;44.494860504173005
4;0.029989242553710938;0.614;0.029368586711999996;44.468428786115005
5;0.03728222846984863;0.614;0.029368586711999996;44.480176216363006
6;0.04457235336303711;0.614;-0.004405275250999999;44.483113073925004
7;0.05187630653381348;0.614;-0.004405275250999999;44.499265790516006
8;0.05917072296142578;0.614;-0.004405275250999999;44.483113073925004
9;0.06645965576171875;0.614;0.027900157931;44.471365643677004
10;0.07374715805053711;0.614;0.054331875989;44.48164464514401
11;0.08103108406066895;0.614;0.026431729150000007;44.483113073925004
12;0.08832049369812012;0.614;0.002936868654000002;44.497797361735
13;0.09560513496398926;0.613;0.027900157931;44.468428786115005
14;0.10289216041564941;0.614;0.051395018427;44.491923646611006
15;0.11017799377441406;0.614;0.004405297434999997;44.490455217830004
16;0.11751747131347656;0.614;0.027900157931;44.47283407245801
17;0.12481117248535156;0.613;0.014684298902000001;44.487518360268005
18;0.13209819793701172;0.614;0.026431729150000007;44.486049931487
19;0.13938617706298828;0.615;0.005873726215999998;44.49632893295401
20;0.14668679237365723;0.614;0.029368586711999996;44.478707787582
21;0.1539769172668457;0.615;0.029368586711999996;44.47723935880101
22;0.16126298904418945;0.614;0.06020559111300001;44.50073421929701
23;0.16855168342590332;0.614;0.011747441339999998;44.466960357334
24;0.17583537101745605;0.613;0.011747441339999998;44.483113073925004
25;0.18312549591064453;0.615;0.011747441339999998;44.493392075392
26;0.1904134750366211;0.612;0.027900157931;44.49632893295401
27;0.19769906997680664;0.614;0.027900157931;44.466960357334
28;0.2049851417541504;0.615;0.008810583778000002;44.466960357334
29;0.21226978302001953;0.615;0.016152727683000002;44.48164464514401
30;0.21955418586730957;0.614;-0.005873704032;44.468428786115005
31;0.22684073448181152;0.614;0.017621156463999997;44.48458150270601
32;0.23413968086242676;0.613;0.027900157931;44.480176216363006
33;0.24142980575561523;0.615;0.0014684398730000006;44.474302501239
34;0.24872827529907227;0.615;0.027900157931;44.486049931487
35;0.25603318214416504;0.615;0.022026442806999995;44.483113073925004
36;0.26334691047668457;0.614;0.027900157931;44.480176216363006
37;0.27063655853271484;0.614;1.1091999999046642e-08;44.464023499772004
38;0.2779264450073242;0.615;0.022026442806999995;44.486049931487
39;0.2852137088775635;0.614;0.032305444274;44.474302501239
40;0.29250431060791016;0.614;0.057268733551000005;44.48458150270601
41;0.2998502254486084;0.614;0.030837015493000004;44.48164464514401
42;0.30713820457458496;0.613;-0.002936846470000004;44.46989721489601
43;0.3144235610961914;0.614;0.027900157931;44.47723935880101
44;0.32170844078063965;0.614;0.027900157931;44.491923646611006
45;0.3289954662322998;0.614;0.027900157931;44.487518360268005
46;0.33628344535827637;0.614;-0.005873704032;44.487518360268005
47;0.3435709476470947;0.614;-0.004405275250999999;44.48164464514401
48;0.35089850425720215;0.614;-0.007342132813000002;44.491923646611006
49;0.3581829071044922;0.615;-0.005873704032;44.48164464514401
50;0.3654789924621582;0.615;-0.005873704032;44.50513950564
51;0.37276434898376465;0.614;0.026431729150000007;44.47723935880101
52;0.3800482749938965;0.614;0.026431729150000007;44.478707787582
53;0.3873434066772461;0.614;-0.004405275250999999;44.499265790516006
54;0.3946702480316162;0.615;0.061674019894;44.49632893295401
55;0.40195584297180176;0.614;0.06020559111300001;44.48898678904901
56;0.4092416763305664;0.614;0.027900157931;44.471365643677004
57;0.41652536392211914;0.614;0.06020559111300001;44.499265790516006
58;0.4238133430480957;0.614;0.029368586711999996;44.494860504173005
59;0.43110108375549316;0.614;-0.007342132813000002;44.478707787582
60;0.43842458724975586;0.613;0.06020559111300001;44.48458150270601
61;0.4457125663757324;0.614;0.027900157931;44.478707787582
62;0.45301222801208496;0.614;-0.005873704032;44.478707787582
63;0.46030473709106445;0.615;0.027900157931;44.48898678904901
64;0.4675869941711426;0.614;0.061674019894;44.480176216363006
65;0.47487783432006836;0.614;-0.007342132813000002;44.475770930020005
66;0.48216700553894043;0.614;-0.005873704032;44.46989721489601
67;0.4894540309906006;0.614;0.027900157931;44.487518360268005
68;0.49674034118652344;0.614;-0.004405275250999999;44.478707787582
69;0.5040271282196045;0.613;0.0014684398730000006;44.478707787582
70;0.511336088180542;0.614;-0.005873704032;44.499265790516006
71;0.5190672874450684;0.615;0.027900157931;44.47723935880101
72;0.5264253616333008;0.614;0.027900157931;44.48164464514401
73;0.5337202548980713;0.614;0.027900157931;44.497797361735
74;0.5410161018371582;0.613;0.026431729150000007;44.487518360268005
75;0.5483102798461914;0.614;0.027900157931;44.48898678904901
76;0.55560302734375;0.614;-0.005873704032;44.494860504173005
77;0.5628974437713623;0.613;0.026431729150000007;44.494860504173005
78;0.570267915725708;0.614;0.027900157931;44.480176216363006
79;0.5775561332702637;0.614;0.029368586711999996;44.478707787582
80;0.5848438739776611;0.615;0.027900157931;44.474302501239
81;0.5921323299407959;0.614;0.027900157931;44.478707787582
82;0.5994212627410889;0.614;0.027900157931;44.506607934421005
83;0.6067068576812744;0.614;0.027900157931;44.46549192855301
84;0.6140000820159912;0.613;-0.005873704032;44.48458150270601
85;0.6212890148162842;0.615;0.026431729150000007;44.47723935880101
86;0.6286001205444336;0.614;0.027900157931;44.490455217830004
87;0.6358885765075684;0.613;0.027900157931;44.47723935880101
88;0.6431794166564941;0.614;0.026431729150000007;44.48164464514401
89;0.6504662036895752;0.613;0.023494871588000003;44.487518360268005
90;0.6577506065368652;0.614;0.026431729150000007;44.46989721489601
91;0.6650552749633789;0.613;0.019089585245000006;44.490455217830004
92;0.6723439693450928;0.615;0.019089585245000006;44.491923646611006
93;0.6796388626098633;0.614;-0.007342132813000002;44.47723935880101
94;0.6869254112243652;0.614;-0.005873704032;44.478707787582
95;0.6942112445831299;0.613;0.027900157931;44.486049931487
96;0.7015018463134766;0.614;0.048458160864999995;44.48164464514401
97;0.7092382907867432;0.614;0.029368586711999996;44.491923646611006
98;0.7171978950500488;0.614;0.010279012558999996;44.475770930020005
99;0.7251598834991455;0.613;-0.007342132813000002;44.50073421929701
100;0.7332003116607666;0.615;0.010279012558999996;44.491923646611006
101;0.741225004196167;0.614;0.027900157931;44.471365643677004
102;0.7491874694824219;0.614;0.027900157931;44.494860504173005
103;0.7582547664642334;0.614;0.026431729150000007;44.506607934421005
104;0.7662172317504883;0.615;0.026431729150000007;44.494860504173005
105;0.7741804122924805;0.614;0.026431729150000007;44.486049931487
106;0.7821431159973145;0.615;0.029368586711999996;44.487518360268005
107;0.7901380062103271;0.614;0.019089585245000006;44.47723935880101
108;0.7981078624725342;0.615;0.027900157931;44.487518360268005
109;0.8061017990112305;0.614;-0.004405275250999999;44.483113073925004
110;0.8140654563903809;0.615;0.038179159398000005;44.483113073925004
111;0.8220231533050537;0.614;0.027900157931;44.48164464514401
112;0.8299894332885742;0.614;0.011747441339999998;44.466960357334
113;0.8379504680633545;0.614;0.027900157931;44.459618213429
114;0.8459134101867676;0.615;0.027900157931;44.480176216363006
115;0.8539550304412842;0.614;0.027900157931;44.46549192855301
116;0.8619160652160645;0.614;-0.005873704032;44.48898678904901
117;0.8698835372924805;0.614;0.027900157931;44.471365643677004
118;0.8779127597808838;0.614;0.027900157931;44.486049931487
119;0.8858771324157715;0.614;-0.002936846470000004;44.47283407245801
120;0.893897533416748;0.614;0.026431729150000007;44.48164464514401
121;0.9018573760986328;0.615;0.004405297434999997;44.486049931487
122;0.909855842590332;0.614;-0.005873704032;44.478707787582
123;0.9178144931793213;0.614;0.008810583778000002;44.478707787582
124;0.9258310794830322;0.615;0.026431729150000007;44.48898678904901
125;0.9338455200195312;0.614;0.027900157931;44.48164464514401
126;0.9418175220489502;0.614;0.027900157931;44.47283407245801
127;0.949793815612793;0.613;0.027900157931;44.480176216363006
128;0.9577622413635254;0.614;0.029368586711999996;44.47283407245801
129;0.9657983779907227;0.614;0.016152727683000002;44.480176216363006
130;0.9738178253173828;0.613;0.027900157931;44.499265790516006
131;0.9817802906036377;0.614;0.027900157931;44.49632893295401
132;0.9897420406341553;0.614;0.004405297434999997;44.49632893295401
133;0.9977009296417236;0.614;-0.004405275250999999;44.474302501239
134;1.0057587623596191;0.613;0.05286344720800001;44.509544791983004
135;1.0140044689178467;0.613;0.042584445741;44.530102794917006
136;1.0219802856445312;0.615;0.064610877456;44.524229079793
137;1.0300164222717285;0.615;0.073421450142;44.540381796384004
138;1.0380048751831055;0.614;0.083700451609;44.512481649545
139;1.0459764003753662;0.614;0.083700451609;44.549192369070006
140;1.053947925567627;0.615;0.08663730917099999;44.54625551150801
141;1.0619134902954102;0.614;0.08663730917099999;44.537444938822006
142;1.0698816776275635;0.614;0.08516888039;44.550660797851
143;1.0779128074645996;0.614;0.088105737952;44.53891336760301
144;1.0858807563781738;0.614;0.09985316820000001;44.55359765541301
145;1.093912124633789;0.614;0.083700451609;44.550660797851
146;1.1018719673156738;0.614;0.06020559111300001;44.55359765541301
147;1.10988450050354;0.613;0.08076359404699998;44.55359765541301
148;1.1179144382476807;0.615;0.088105737952;44.530102794917006
149;1.125882863998413;0.614;0.054331875989;44.549192369070006
150;1.1339354515075684;0.614;0.08516888039;44.533039652479005
151;1.1419081687927246;0.614;0.08663730917099999;44.53891336760301
152;1.1498744487762451;0.614;0.08663730917099999;44.530102794917006
153;1.1579077243804932;0.614;0.102790025762;44.535976510041
154;1.1658809185028076;0.614;0.08663730917099999;44.543318653946
155;1.1739084720611572;0.613;0.08663730917099999;44.533039652479005
156;1.1818783283233643;0.614;0.088105737952;44.53450808126001
157;1.1898491382598877;0.614;0.06607930623700001;44.53891336760301
158;1.197817087173462;0.615;0.08663730917099999;44.540381796384004
159;1.2058436870574951;0.614;0.06607930623700001;44.544787082727005
160;1.213918924331665;0.614;0.08663730917099999;44.544787082727005
161;1.221886396408081;0.614;0.08663730917099999;44.543318653946
162;1.2298519611358643;0.614;0.08076359404699998;44.55359765541301
163;1.2378153800964355;0.614;0.089574166733;44.552129226632005
164;1.2458510398864746;0.614;0.08516888039;44.540381796384004
165;1.2538721561431885;0.615;0.08663730917099999;44.555066084194
166;1.2618346214294434;0.614;0.05286344720800001;44.544787082727005
167;1.2698168754577637;0.614;0.08663730917099999;44.549192369070006
168;1.277778148651123;0.614;0.08663730917099999;44.535976510041
169;1.285811424255371;0.614;0.08663730917099999;44.56093979931801
170;1.2938449382781982;0.614;0.08516888039;44.535976510041
171;1.3018150329589844;0.614;0.05286344720800001;44.552129226632005
172;1.309816837310791;0.615;0.08516888039;44.547723940289
173;1.3177917003631592;0.614;0.051395018427;44.54625551150801
174;1.3258185386657715;0.614;0.054331875989;44.56093979931801
175;1.3338353633880615;0.615;0.08663730917099999;44.53450808126001
176;1.341801404953003;0.615;0.11894274235300001;44.533039652479005
177;1.3497660160064697;0.614;0.08663730917099999;44.54625551150801
178;1.3577260971069336;0.614;0.054331875989;44.566813514442
179;1.3657574653625488;0.614;0.088105737952;44.547723940289
180;1.373777151107788;0.615;0.08663730917099999;44.54625551150801
181;1.3817412853240967;0.615;0.08663730917099999;44.559471370537004
182;1.3897075653076172;0.614;0.088105737952;44.525697508574005
183;1.3976662158966064;0.614;0.07635830770400001;44.544787082727005
184;1.4056310653686523;0.614;0.055800304769999996;44.543318653946
185;1.4136316776275635;0.615;0.083700451609;44.537444938822006
186;1.4215962886810303;0.614;0.054331875989;44.563876656880005
187;1.4295628070831299;0.614;0.055800304769999996;44.531571223698
188;1.437535047531128;0.614;0.06754773501799999;44.53891336760301
189;1.4454994201660156;0.614;0.08663730917099999;44.530102794917006
190;1.453465461730957;0.615;0.08663730917099999;44.53891336760301
191;1.4614276885986328;0.614;0.08663730917099999;44.535976510041
192;1.4693937301635742;0.614;0.098384739419;44.535976510041
193;1.4773783683776855;0.613;0.08663730917099999;44.530102794917006
194;1.4853496551513672;0.614;0.08663730917099999;44.549192369070006
195;1.4933340549468994;0.614;0.05286344720800001;44.537444938822006
196;1.5013012886047363;0.614;0.08516888039;44.555066084194
197;1.5092666149139404;0.614;0.08663730917099999;44.537444938822006
198;1.5172655582427979;0.612;0.05286344720800001;44.54625551150801
199;1.52531099319458;0.615;0.08663730917099999;44.525697508574005
200;1.53328537940979;0.615;0.08663730917099999;44.54185022516501
201;1.5412657260894775;0.614;0.074889878923;44.521292222231004
202;1.5492372512817383;0.614;0.088105737952;44.531571223698
203;1.5571978092193604;0.613;0.08663730917099999;44.555066084194
204;1.5651686191558838;0.614;0.08663730917099999;44.547723940289
205;1.573261022567749;0.614;0.08663730917099999;44.540381796384004
206;1.5812857151031494;0.614;0.08516888039;44.549192369070006
207;1.5892460346221924;0.615;0.055800304769999996;44.55800294175601
208;1.5972051620483398;0.614;0.05286344720800001;44.550660797851
209;1.6051809787750244;0.614;0.08663730917099999;44.550660797851
210;1.613264799118042;0.614;0.08663730917099999;44.53891336760301
211;1.621286153793335;0.614;0.08663730917099999;44.535976510041
212;1.6292495727539062;0.614;0.08663730917099999;44.53891336760301
213;1.6383323669433594;0.614;0.108663740886;44.549192369070006
214;1.6463005542755127;0.614;0.08516888039;44.547723940289
215;1.6542673110961914;0.614;0.09985316820000001;44.54185022516501
216;1.6622364521026611;0.615;0.05286344720800001;44.533039652479005
217;1.6701974868774414;0.614;0.088105737952;44.54185022516501
218;1.6781628131866455;0.614;0.08516888039;44.54625551150801
219;1.6861226558685303;0.613;0.08663730917099999;44.56093979931801
220;1.6940927505493164;0.614;0.054331875989;44.544787082727005
221;1.702057123184204;0.614;0.08663730917099999;44.544787082727005
222;1.7100214958190918;0.614;0.08663730917099999;44.544787082727005
223;1.7180299758911133;0.614;0.08516888039;44.56093979931801
224;1.7259869575500488;0.614;0.08663730917099999;44.544787082727005
225;1.733954906463623;0.614;0.054331875989;44.52276065101201
226;1.741922378540039;0.614;0.08663730917099999;44.53891336760301
227;1.7498867511749268;0.615;0.08663730917099999;44.537444938822006
228;1.7579619884490967;0.614;0.07048459258;44.552129226632005
229;1.765934944152832;0.614;0.08663730917099999;44.530102794917006
230;1.7739050388336182;0.615;0.08516888039;44.53891336760301
231;1.7818715572357178;0.613;0.08663730917099999;44.552129226632005
232;1.789834976196289;0.615;0.083700451609;44.54185022516501
233;1.797804832458496;0.614;0.05286344720800001;44.535976510041
234;1.8058393001556396;0.614;0.054331875989;44.533039652479005
235;1.8139007091522217;0.614;0.06314244867499999;44.528634366136004
236;1.8218657970428467;0.615;0.11894274235300001;44.555066084194
237;1.8298261165618896;0.615;0.102790025762;44.556534512975006
238;1.837780237197876;0.615;0.054331875989;44.55800294175601
239;1.845810890197754;0.615;0.08663730917099999;44.54625551150801
240;1.853830337524414;0.614;0.08663730917099999;44.54185022516501
241;1.8617925643920898;0.613;0.088105737952;44.543318653946
242;1.8697576522827148;0.615;0.08663730917099999;44.525697508574005
243;1.877716064453125;0.614;0.05286344720800001;44.552129226632005
244;1.885737657546997;0.614;0.055800304769999996;44.556534512975006
245;1.8937554359436035;0.614;0.08663730917099999;44.535976510041
246;1.901719570159912;0.614;0.08663730917099999;44.543318653946
247;1.909691333770752;0.614;0.08663730917099999;44.544787082727005
248;1.9176950454711914;0.613;0.06314244867499999;44.54185022516501
249;1.9257214069366455;0.613;0.08663730917099999;44.543318653946
250;1.9336938858032227;0.614;0.088105737952;44.540381796384004
251;1.9416568279266357;0.614;0.054331875989;44.562408228099
252;1.9496371746063232;0.613;0.088105737952;44.544787082727005
253;1.957603931427002;0.615;0.08516888039;44.544787082727005
254;1.9655673503875732;0.614;0.051395018427;44.568281943223006
255;1.9735264778137207;0.614;0.093979453076;44.530102794917006
256;1.981485366821289;0.615;0.08516888039;44.55359765541301
257;1.9894511699676514;0.615;0.08663730917099999;44.549192369070006
258;1.9974110126495361;0.614;0.05286344720800001;44.525697508574005
259;2.0053768157958984;0.613;0.08663730917099999;44.543318653946
260;2.013339042663574;0.614;0.08663730917099999;44.552129226632005
261;2.0218238830566406;0.614;0.079295165266;44.566813514442
262;2.029829502105713;0.614;0.05286344720800001;44.559471370537004
263;2.03780198097229;0.615;0.061674019894;44.52716593735501
264;2.045856237411499;0.614;0.054331875989;44.556534512975006
265;2.053895950317383;0.613;0.074889878923;44.550660797851
266;2.0618679523468018;0.614;0.054331875989;44.543318653946
267;2.069833278656006;0.613;0.054331875989;44.547723940289
268;2.077792167663574;0.614;0.08663730917099999;44.535976510041
269;2.0858333110809326;0.614;0.08516888039;44.55800294175601
270;2.093862533569336;0.614;0.08516888039;44.53891336760301
271;2.10183048248291;0.614;0.08663730917099999;44.550660797851
272;2.109788656234741;0.613;0.088105737952;44.556534512975006
273;2.117905855178833;0.614;0.088105737952;44.535976510041
274;2.1258833408355713;0.614;0.08663730917099999;44.54625551150801
275;2.1339080333709717;0.613;0.08663730917099999;44.552129226632005
276;2.141873359680176;0.613;0.08663730917099999;44.550660797851
277;2.14983868598938;0.614;0.05286344720800001;44.544787082727005
278;2.1577980518341064;0.614;0.05286344720800001;44.547723940289
279;2.1658236980438232;0.613;0.05286344720800001;44.55800294175601
280;2.1738452911376953;0.615;0.10132159698099999;44.549192369070006
281;2.1818127632141113;0.614;0.05286344720800001;44.550660797851
282;2.1897807121276855;0.613;0.08663730917099999;44.544787082727005
283;2.197740316390991;0.614;0.12041117113399999;44.528634366136004
284;2.2057626247406006;0.613;0.069016163799;44.56534508566101
285;2.2137904167175293;0.614;0.054331875989;44.535976510041
286;2.221796751022339;0.614;0.05286344720800001;44.544787082727005
287;2.229763984680176;0.614;0.057268733551000005;44.552129226632005
288;2.2377214431762695;0.614;0.08663730917099999;44.55800294175601
289;2.2457518577575684;0.614;0.079295165266;44.537444938822006
290;2.253774881362915;0.614;0.051395018427;44.563876656880005
291;2.2617344856262207;0.614;0.08663730917099999;44.537444938822006
292;2.269693374633789;0.614;0.088105737952;44.563876656880005
293;2.277656078338623;0.614;0.08663730917099999;44.547723940289
294;2.28562068939209;0.614;0.088105737952;44.53891336760301
295;2.293583869934082;0.614;0.08663730917099999;44.56093979931801
296;2.3015472888946533;0.614;0.08663730917099999;44.563876656880005
297;2.309507369995117;0.614;0.055800304769999996;44.549192369070006
298;2.3175010681152344;0.615;0.08516888039;44.53450808126001
299;2.325467586517334;0.615;0.08516888039;44.54185022516501
300;2.3334319591522217;0.614;0.054331875989;44.555066084194
301;2.341395616531372;0.613;0.12041117113399999;44.54185022516501
302;2.349363088607788;0.614;0.08663730917099999;44.54185022516501
303;2.3573262691497803;0.614;0.08663730917099999;44.53891336760301
304;2.3652966022491455;0.614;0.08663730917099999;44.535976510041
305;2.3732686042785645;0.614;0.08663730917099999;44.544787082727005
306;2.3813085556030273;0.614;0.088105737952;44.53891336760301
307;2.3892745971679688;0.615;0.06607930623700001;44.537444938822006
