;Time;Thrust;BEM pressure;N2O pressure
0;0.0;32767;0;1
1;0.01245260238647461;32767;1;0
2;0.02490520477294922;32767;0;0
3;0.03601360321044922;32767;1;0
4;0.04700589179992676;32767;1;1
5;0.05809831619262695;32767;0;0
6;0.06911134719848633;32767;1;0
7;0.0801246166229248;32767;1;0
8;0.09110713005065918;32767;0;0
9;0.10224533081054688;32767;0;0
10;0.11325263977050781;32767;0;0
11;0.12424397468566895;32767;0;1
12;0.13521814346313477;32767;0;0
13;0.14627528190612793;32767;0;0
14;0.1572737693786621;32767;-1;-1
15;0.16829490661621094;32767;1;0
16;0.1795823574066162;32767;0;1
17;0.19050168991088867;32767;1;0
18;0.20159697532653809;32767;0;1
19;0.21392154693603516;32767;1;0
20;0.22499966621398926;32767;0;0
21;0.23601627349853516;32767;0;0
22;0.24700617790222168;32767;0;0
23;0.2580227851867676;32767;0;0
24;0.26901698112487793;32767;1;1
25;0.28003621101379395;32767;0;1
26;0.29104065895080566;32767;0;0
27;0.30217885971069336;32767;0;-1
28;0.31320714950561523;32767;1;0
29;0.32422733306884766;32767;0;1
30;0.33521461486816406;32767;0;0
31;0.34626007080078125;32767;0;0
32;0.3572652339935303;32767;0;0
33;0.3683316707611084;32767;0;1
34;0.3794088363647461;32767;1;0
35;0.39037418365478516;32767;0;1
36;0.4014606475830078;32767;0;1
37;0.41259169578552246;32767;0;0
38;0.42359209060668945;32767;0;0
39;0.4345581531524658;32767;-1;0
40;0.44844627380371094;32767;0;1
41;0.4595322608947754;32767;0;-1
42;0.47051072120666504;32767;0;0
43;0.48154401779174805;32767;0;1
44;0.4926142692565918;32767;0;1
45;0.5035955905914307;32767;1;0
46;0.5145707130432129;32767;0;1
47;0.5255322456359863;32767;0;-1
48;0.5364995002746582;32767;0;0
49;0.5474827289581299;32767;0;0
50;0.5585391521453857;32767;0;0
51;0.5695784091949463;32767;1;0
52;0.5805654525756836;32767;0;0
53;0.5915377140045166;32767;0;1
54;0.6025590896606445;32767;0;0
55;0.6134822368621826;32767;0;0
56;0.624382734298706;32767;1;1
57;0.6353259086608887;32767;0;0
58;0.6463491916656494;32767;1;0
59;0.6573624610900879;32767;1;-1
60;0.668463945388794;32767;1;0
61;0.6795389652252197;32767;0;0
62;0.6905162334442139;32767;2;0
63;0.7015507221221924;32767;0;1
64;0.7125949859619141;32767;0;0
65;0.7235672473907471;32767;1;0
66;0.734541654586792;32767;0;0
67;0.7455189228057861;32767;0;0
68;0.7564840316772461;32767;1;0
69;0.7674825191497803;32767;0;0
70;0.7784655094146729;32767;0;0
71;0.7896769046783447;32767;1;0
72;0.8006691932678223;32767;-1;-1
73;0.8117024898529053;32767;0;0
74;0.8227686882019043;32767;1;1
75;0.8337512016296387;32767;0;0
76;0.8448054790496826;32767;0;0
77;0.8558688163757324;32767;0;1
78;0.866912841796875;32767;0;0
79;0.8779189586639404;32767;1;0
80;0.8888852596282959;32767;0;0
81;0.8999176025390625;32767;0;0
82;0.9109158515930176;32767;1;0
83;0.921978235244751;32767;1;0
84;0.932969331741333;32767;0;0
85;0.943941593170166;32767;0;0
86;0.955007791519165;32767;1;0
87;0.9661099910736084;32767;0;1
88;0.9770994186401367;32767;0;1
89;0.9880876541137695;32767;1;0
90;0.9990806579589844;32767;0;0
91;1.0100810527801514;32767;1;1
92;1.021097183227539;32767;0;0
93;1.0323126316070557;32767;0;0
94;1.0433309078216553;32767;0;1
95;1.054326057434082;32767;1;0
96;1.0653715133666992;32767;0;0
97;1.0763823986053467;32767;1;0
98;1.087378740310669;32767;1;1
99;1.0984711647033691;32767;0;0
100;1.1095514297485352;32767;1;0
101;1.1205675601959229;32767;1;0
102;1.1316208839416504;32767;1;0
103;1.1426832675933838;32767;1;0
104;1.1536893844604492;32767;1;0
105;1.1648156642913818;32767;0;0
106;1.1759088039398193;32767;1;0
107;1.1869151592254639;32767;1;0
108;1.197920322418213;32767;0;0
109;1.2115671634674072;32767;1;0
110;1.226201057434082;32767;1;0
111;1.2407381534576416;32767;1;0
112;1.255497932434082;32767;0;1
113;1.2700400352478027;32767;1;1
114;1.2845489978790283;32767;1;0
115;1.298997163772583;32767;0;1
116;1.3134958744049072;32767;0;0
117;1.328056812286377;32767;1;1
118;1.3427479267120361;32767;0;-1
119;1.3573200702667236;32767;0;1
120;1.3719017505645752;32767;0;1
121;1.3864507675170898;32767;0;1
122;1.400965690612793;32767;0;0
123;1.4157578945159912;32767;0;0
124;1.4302208423614502;32767;1;1
125;1.4446618556976318;32767;0;1
126;1.4591126441955566;32767;2;0
127;1.4736504554748535;32767;0;0
128;1.4881396293640137;32767;0;0
129;1.5028655529022217;32767;0;0
130;1.5174636840820312;32767;1;-1
131;1.5319795608520508;32767;0;-1
132;1.5464954376220703;32767;1;0
133;1.5610504150390625;32767;1;0
134;1.575756311416626;32767;-1;0
135;1.590238332748413;32767;1;0
136;1.60467529296875;32767;1;1
137;1.6191482543945312;32767;1;1
138;1.633655309677124;32767;0;0
139;1.648191213607788;32767;0;1
140;1.6642582416534424;32767;0;0
141;1.6788055896759033;32767;1;0
142;1.6933684349060059;32767;0;-1
143;1.708007574081421;32767;0;0
144;1.7227234840393066;32767;1;0
145;1.7372634410858154;32767;1;0
146;1.7517521381378174;32767;1;0
147;1.7663521766662598;32767;0;0
148;1.7809650897979736;32767;0;0
149;1.795558214187622;32767;0;0
150;1.8100051879882812;32767;1;0
151;1.8244552612304688;32767;1;0
152;1.83896803855896;32767;0;1
153;1.8534820079803467;32767;1;0
154;1.868021011352539;32767;0;0
155;1.886138677597046;32767;0;0
156;1.900693655014038;32767;0;1
157;1.9154083728790283;32767;1;0
158;1.9298992156982422;32767;0;0
159;1.9444682598114014;32767;0;1
160;1.9589471817016602;32767;0;1
161;1.9734621047973633;32767;1;0
162;1.9879980087280273;32767;1;1
163;2.0027339458465576;32767;1;0
164;2.017335891723633;32767;1;0
165;2.031827688217163;32767;1;0
166;2.046360731124878;32767;1;1
167;2.060941696166992;32767;1;0
168;2.075631618499756;32767;1;0
169;2.090050458908081;32767;1;0
170;2.1045243740081787;32767;1;1
171;2.1190571784973145;32767;0;1
172;2.133594274520874;32767;1;0
173;2.1481411457061768;32767;0;0
174;2.1628029346466064;32767;0;1
175;2.177379846572876;32767;0;0
176;2.191873788833618;32767;1;0
177;2.206480026245117;32767;1;1
178;2.2210237979888916;32767;0;2
179;2.2356855869293213;32767;0;1
180;2.2501444816589355;32767;1;-1
181;2.2646405696868896;32767;0;0
182;2.2791123390197754;32767;0;0
183;2.2935574054718018;32767;1;0
184;2.3081581592559814;32767;0;0
185;2.322838068008423;32767;1;0
186;2.3373889923095703;32767;1;2
187;2.3518800735473633;32767;0;0
188;2.36643385887146;32767;0;0
189;2.3809807300567627;32767;0;0
190;2.3955078125;32767;1;-1
191;2.409947633743286;32767;0;0
192;2.424504518508911;32767;1;0
193;2.4389524459838867;32767;0;1
194;2.4534244537353516;32767;1;0
195;2.4680073261260986;32767;1;0
196;2.482694149017334;32767;1;0
197;2.4971041679382324;32767;1;0
198;2.5116260051727295;32767;1;0
199;2.526181936264038;32767;0;0
200;2.540747880935669;32767;1;0
201;2.5553507804870605;32767;1;0
202;2.569849729537964;32767;1;1
203;2.5844197273254395;32767;0;1
204;2.5988755226135254;32767;0;0
205;2.613393545150757;32767;1;-1
206;2.6279332637786865;32767;1;1
207;2.6426002979278564;32767;1;1
208;2.657097339630127;32767;1;1
209;2.671679973602295;32767;0;-1
210;2.686239004135132;32767;0;0
211;2.7007899284362793;32767;0;1
212;2.715423822402954;32767;0;0
213;2.729876756668091;32767;0;0
214;2.7444076538085938;32767;1;0
215;2.758854389190674;32767;1;0
216;2.773385524749756;32767;0;0
217;2.787949323654175;32767;0;1
218;2.8027102947235107;32767;0;0
219;2.817188262939453;32767;1;1
220;2.8316993713378906;32767;1;0
221;2.846245288848877;32767;0;-1
222;2.860719919204712;32767;0;1
223;2.875553846359253;32767;1;0
224;2.8900537490844727;32767;1;0
225;2.9045393466949463;32767;1;1
226;2.9189863204956055;32767;0;1
227;2.933471202850342;32767;0;0
228;2.947996139526367;32767;1;0
229;2.962656021118164;32767;1;0
230;2.9771728515625;32767;1;0
231;2.991684675216675;32767;0;1
232;3.0063376426696777;32767;1;0
233;3.0208635330200195;32767;0;1
234;3.0354223251342773;32767;0;1
235;3.049873113632202;32767;1;0
236;3.0644161701202393;32767;1;1
237;3.0788989067077637;32767;0;1
238;3.093414783477783;32767;0;1
239;3.1078808307647705;32767;1;0
240;3.1225976943969727;32767;0;0
241;3.1370272636413574;32767;0;1
242;3.1515612602233887;32767;0;0
243;3.1660921573638916;32767;0;1
244;3.180669069290161;32767;1;0
245;3.1952059268951416;32767;0;1
246;3.2096266746520996;32767;1;1
247;3.224081516265869;32767;0;0
248;3.238522529602051;32767;0;0
249;3.25307035446167;32767;0;0
250;3.2676191329956055;32767;0;0
251;3.2821991443634033;32767;1;0
252;3.2966299057006836;32767;0;-1
253;3.3110477924346924;32767;0;1
254;3.3258607387542725;32767;0;0
255;3.340219497680664;32767;-1;1
256;3.3548033237457275;32767;1;0
257;3.369371175765991;32767;0;0
258;3.3838882446289062;32767;0;0
259;3.398352861404419;32767;0;1
260;3.4130377769470215;32767;0;-1
261;3.4276487827301025;32767;0;1
262;3.4422194957733154;32767;1;1
263;3.456688404083252;32767;1;0
264;3.471182346343994;32767;0;0
265;3.4891717433929443;32767;0;0
266;3.503650665283203;32767;1;0
267;3.5182137489318848;32767;0;0
268;3.532883405685425;32767;0;0
269;3.54740834236145;32767;0;0
270;3.5618672370910645;32767;0;1
271;3.5764029026031494;32767;0;1
272;3.5909759998321533;32767;0;0
273;3.6055257320404053;32767;1;1
274;3.6199727058410645;32767;0;0
275;3.634521722793579;32767;0;0
276;3.6490085124969482;32767;1;0
277;3.663483142852783;32767;1;0
278;3.6780710220336914;32767;1;-1
279;3.692737102508545;32767;0;1
280;3.7074267864227295;32767;1;0
281;3.724330186843872;32767;1;1
282;3.7387959957122803;32767;1;1
283;3.7534568309783936;32767;1;0
284;3.768096923828125;32767;0;0
285;3.7828168869018555;32767;1;0
286;3.7973716259002686;32767;0;0
287;3.811784505844116;32767;1;0
288;3.826509475708008;32767;0;0
289;3.8410611152648926;32767;0;1
290;3.8557801246643066;32767;0;0
291;3.8702659606933594;32767;1;0
292;3.8848867416381836;32767;1;0
293;3.899273633956909;32767;1;1
294;3.9137063026428223;32767;1;0
295;3.928213119506836;32767;0;0
296;3.9428889751434326;32767;0;1
297;3.9574697017669678;32767;1;-1
298;3.9719045162200928;32767;1;0
299;3.986436367034912;32767;0;1
300;4.001038312911987;32767;0;1
301;4.015606164932251;32767;0;0
302;4.030101776123047;32767;1;0
303;4.0445966720581055;32767;1;0
304;4.0590574741363525;32767;1;0
305;4.073570251464844;32767;1;0
306;4.088118076324463;32767;1;1
307;4.102787017822266;32767;1;-1
308;4.117244720458984;32767;0;0
309;4.131730794906616;32767;0;0
310;4.146289348602295;32767;1;0
311;4.160839319229126;32767;0;0
312;4.175503253936768;32767;0;0
313;4.189953804016113;32767;1;0
314;4.204524755477905;32767;0;0
315;4.2189414501190186;32767;0;1
316;4.233454465866089;32767;0;0
317;4.248020172119141;32767;0;0
318;4.262714147567749;32767;1;1
319;4.277252912521362;32767;0;-1
320;4.2918078899383545;32767;0;1
321;4.306375503540039;32767;0;1
322;4.3210673332214355;32767;1;1
323;4.335805177688599;32767;1;1
324;4.3503029346466064;32767;0;1
325;4.36488676071167;32767;0;0
326;4.379418611526489;32767;0;0
327;4.39386248588562;32767;1;0
328;4.408369302749634;32767;1;1
329;4.4231343269348145;32767;1;1
330;4.437740087509155;32767;0;0
331;4.4523890018463135;32767;0;1
332;4.466847658157349;32767;1;1
333;4.4814746379852295;32767;1;1
334;4.496082305908203;32767;0;1
335;4.510610342025757;32767;1;0
336;4.525155782699585;32767;1;1
337;4.539702892303467;32767;0;1
338;4.554226398468018;32767;0;1
339;4.568706274032593;32767;0;1
340;4.583305358886719;32767;1;0
341;4.597837209701538;32767;0;0
342;4.612668037414551;32767;1;0
343;4.627134799957275;32767;1;0
344;4.64166259765625;32767;1;1
345;4.656261444091797;32767;1;0
346;4.6708173751831055;32767;0;0
347;4.685445070266724;32767;0;1
348;4.6999077796936035;32767;0;0
349;4.714416742324829;32767;1;1
350;4.7289345264434814;32767;-1;1
351;4.743421316146851;32767;1;0
352;4.757987022399902;32767;0;0
353;4.772641181945801;32767;0;0
354;4.7871317863464355;32767;1;1
355;4.801663637161255;32767;0;1
356;4.8163464069366455;32767;0;0
357;4.830916404724121;32767;0;0
358;4.845518112182617;32767;1;1
359;4.859986066818237;32767;0;0
360;4.874440670013428;32767;1;0
361;4.888945579528809;32767;0;0
362;4.903434991836548;32767;1;0
363;4.918025016784668;32767;0;0
364;4.932665586471558;32767;0;-1
365;4.947124481201172;32767;1;1
366;4.9616334438323975;32767;1;0
367;4.97619891166687;32767;1;0
368;4.990858793258667;32767;0;0
369;5.005458831787109;32767;0;0
370;5.019887447357178;32767;1;0
371;5.034623384475708;32767;0;0
372;5.049140930175781;32767;2;0
373;5.06367564201355;32767;0;0
374;5.078160524368286;32767;0;0
375;5.096107006072998;32767;0;0
376;5.110720872879028;32767;1;0
377;5.125482559204102;32767;0;1
378;5.139998197555542;32767;1;0
379;5.154526948928833;32767;1;-1
380;5.169078826904297;32767;2;1
381;5.1836395263671875;32767;0;0
382;5.198145389556885;32767;0;1
383;5.212961435317993;32767;0;-1
384;5.227540969848633;32767;0;0
385;5.242254972457886;32767;0;-1
386;5.256776571273804;32767;-1;0
387;5.271369457244873;32767;1;0
388;5.2860400676727295;32767;1;0
389;5.30065393447876;32767;0;0
390;5.315255880355835;32767;1;0
391;5.329755544662476;32767;1;0
392;5.344320297241211;32767;1;0
393;5.358855247497559;32767;0;1
394;5.373338937759399;32767;0;0
395;5.387946605682373;32767;1;1
396;5.402619361877441;32767;1;0
397;5.41715931892395;32767;0;0
398;5.43165397644043;32767;1;0
399;5.4463279247283936;32767;0;0
400;5.460906505584717;32767;1;0
401;5.475537538528442;32767;0;0
402;5.490105152130127;32767;0;0
403;5.504645824432373;32767;0;0
404;5.519130706787109;32767;0;0
405;5.533675670623779;32767;0;0
406;5.548187255859375;32767;1;-1
407;5.562952995300293;32767;0;0
408;5.57756495475769;32767;1;0
409;5.592245578765869;32767;0;0
410;5.606783628463745;32767;1;0
411;5.621429204940796;32767;0;0
412;5.636094093322754;32767;0;1
413;5.650651693344116;32767;1;0
414;5.665437698364258;32767;0;1
415;5.6799843311309814;32767;0;0
416;5.694496393203735;32767;1;0
417;5.709019899368286;32767;0;0
418;5.723540782928467;32767;0;0
419;5.738130569458008;32767;0;0
420;5.752833366394043;32767;0;0
421;5.7674291133880615;32767;0;0
422;5.781982660293579;32767;0;0
423;5.796459674835205;32767;0;0
424;5.811036586761475;32767;1;0
425;5.825874328613281;32767;1;0
426;5.840492010116577;32767;2;0
427;5.854994773864746;32767;0;0
428;5.869467496871948;32767;0;1
429;5.884038209915161;32767;0;0
430;5.898542881011963;32767;1;0
431;5.913353681564331;32767;1;0
432;5.927969694137573;32767;0;1
433;5.942675352096558;32767;1;1
434;5.957305908203125;32767;1;0
435;5.971845626831055;32767;0;1
436;5.98662257194519;32767;0;0
437;6.001216411590576;32767;1;0
438;6.015917778015137;32767;1;0
439;6.030617713928223;32767;0;0
440;6.045225620269775;32767;0;1
441;6.059725046157837;32767;-1;1
442;6.074272155761719;32767;0;0
443;6.088854789733887;32767;0;0
444;6.103398561477661;32767;0;1
445;6.117966175079346;32767;0;0
446;6.132807016372681;32767;0;0
447;6.147432804107666;32767;0;1
448;6.16197943687439;32767;0;1
449;6.176480054855347;32767;1;0
450;6.191154956817627;32767;0;0
451;6.205920934677124;32767;1;0
452;6.220515489578247;32767;0;1
453;6.235068321228027;32767;0;0
454;6.249671936035156;32767;0;0
455;6.264197587966919;32767;1;1
456;6.278671503067017;32767;0;0
457;6.293283224105835;32767;0;-1
458;6.307914733886719;32767;2;1
459;6.322672605514526;32767;0;0
460;6.337231397628784;32767;1;0
461;6.351778030395508;32767;0;0
462;6.3663740158081055;32767;1;1
463;6.380985736846924;32767;0;0
464;6.3957133293151855;32767;0;0
465;6.410224199295044;32767;0;0
466;6.424656629562378;32767;1;0
467;6.439185380935669;32767;0;1
468;6.453687429428101;32767;1;0
469;6.468169927597046;32767;1;0
470;6.4828877449035645;32767;0;0
471;6.497606515884399;32767;0;1
472;6.512217044830322;32767;1;1
473;6.526656150817871;32767;0;0
474;6.541174650192261;32767;0;0
475;6.555877447128296;32767;0;1
476;6.570441246032715;32767;1;1
477;6.584959983825684;32767;0;0
478;6.599602699279785;32767;1;0
479;6.61413836479187;32767;1;0
480;6.62856912612915;32767;0;1
481;6.643186092376709;32767;0;0
482;6.657810688018799;32767;1;0
483;6.672443389892578;32767;0;0
484;6.686954975128174;32767;0;1
485;6.701592922210693;32767;0;1
486;6.7193520069122314;32767;0;0
487;6.733870983123779;32767;0;0
488;6.748342514038086;32767;1;0
489;6.763011455535889;32767;1;1
490;6.77765417098999;32767;0;0
491;6.792311906814575;32767;0;0
492;6.80683159828186;32767;1;1
493;6.821280241012573;32767;0;1
494;6.83616304397583;32767;0;0
495;6.8507490158081055;32767;1;0
496;6.865392684936523;32767;1;0
497;6.879873275756836;32767;0;0
498;6.894537925720215;32767;0;1
499;6.90901255607605;32767;0;0
500;6.923527240753174;32767;1;0
501;6.938143014907837;32767;1;0
502;6.952865839004517;32767;0;0
503;6.967461347579956;32767;1;0
504;6.982085227966309;32767;0;0
505;6.996614933013916;32767;0;0
506;7.011132478713989;32767;0;0
507;7.026076316833496;32767;1;-1
508;7.040719985961914;32767;1;1
509;7.055354595184326;32767;0;1
510;7.0698723793029785;32767;0;0
511;7.0844879150390625;32767;0;1
512;7.099028825759888;32767;0;0
513;7.113513469696045;32767;0;0
514;7.128204107284546;32767;0;1
515;7.142915964126587;32767;1;1
516;7.157547473907471;32767;0;0
517;7.17217755317688;32767;1;1
518;7.186708927154541;32767;0;1
519;7.20121955871582;32767;0;1
520;7.215925455093384;32767;0;1
521;7.230550050735474;32767;0;0
522;7.245078802108765;32767;0;0
523;7.259653329849243;32767;1;0
524;7.274188995361328;32767;0;0
525;7.288723945617676;32767;1;0
526;7.303324460983276;32767;0;0
527;7.317902326583862;32767;1;0
528;7.332715034484863;32767;1;1
529;7.34732460975647;32767;1;0
530;7.36186146736145;32767;1;1
531;7.376382112503052;32767;0;0
532;7.391065835952759;32767;1;0
533;7.4058356285095215;32767;1;0
534;7.420429468154907;32767;0;0
535;7.434984922409058;32767;0;0
536;7.449600458145142;32767;1;0
537;7.464185476303101;32767;1;0
538;7.478749990463257;32767;1;1
539;7.49338173866272;32767;1;0
540;7.5080225467681885;32767;1;0
541;7.522842168807983;32767;0;0
542;7.537949085235596;32767;-1;0
543;7.552832841873169;32767;0;0
544;7.567456483840942;32767;1;0
545;7.582007169723511;32767;0;0
546;7.59658670425415;32767;0;0
547;7.611199617385864;32767;-1;1
548;7.626059293746948;32767;0;0
549;7.640708923339844;32767;1;0
550;7.655379772186279;32767;1;0
551;7.669928550720215;32767;0;1
552;7.684552907943726;32767;1;0
553;7.699141025543213;32767;0;0
554;7.713660478591919;32767;1;0
555;7.7282631397247314;32767;0;0
556;7.742967844009399;32767;1;0
557;7.757705450057983;32767;1;0
558;7.772384405136108;32767;0;0
559;7.786907911300659;32767;0;0
560;7.801549911499023;32767;0;0
561;7.81617546081543;32767;1;0
562;7.83091926574707;32767;0;1
563;7.84555983543396;32767;0;0
564;7.860098600387573;32767;0;0
565;7.8746562004089355;32767;0;0
566;7.889226913452148;32767;1;0
567;7.903786659240723;32767;0;1
568;7.91831111907959;32767;1;0
569;7.933098793029785;32767;1;0
570;7.947709560394287;32767;1;0
571;7.962293386459351;32767;0;0
572;7.976810693740845;32767;0;1
573;7.991554498672485;32767;0;1
574;8.006179094314575;32767;0;0
575;8.020782947540283;32767;0;0
576;8.035491704940796;32767;0;0
577;8.050016164779663;32767;0;1
578;8.06448483467102;32767;1;0
579;8.078985452651978;32767;0;-1
580;8.093521118164062;32767;1;0
581;8.10812258720398;32767;1;0
582;8.122981548309326;32767;0;0
583;8.13761830329895;32767;0;1
584;8.15223479270935;32767;0;1
585;8.166714429855347;32767;0;1
586;8.181419134140015;32767;1;0
587;8.196072816848755;32767;1;1
588;8.210753440856934;32767;1;0
589;8.225397109985352;32767;0;0
590;8.239890813827515;32767;1;1
591;8.25449252128601;32767;1;0
592;8.268966913223267;32767;1;-1
593;8.28346848487854;32767;0;0
594;8.298046350479126;32767;2;0
595;8.312724113464355;32767;0;0
596;8.330570220947266;32767;1;1
597;8.345114946365356;32767;0;0
598;8.359691619873047;32767;0;1
599;8.374300241470337;32767;1;1
600;8.388752937316895;32767;0;0
601;8.403375387191772;32767;1;1
602;8.417969226837158;32767;1;0
603;8.432678937911987;32767;0;0
604;8.447195529937744;32767;0;0
605;8.46172308921814;32767;1;0
606;8.476311922073364;32767;0;0
607;8.490946292877197;32767;1;0
608;8.505552291870117;32767;1;0
609;8.520035982131958;32767;0;0
610;8.534470558166504;32767;0;0
611;8.549000978469849;32767;1;0
612;8.56352162361145;32767;1;0
613;8.57808232307434;32767;0;0
614;8.59289288520813;32767;1;0
615;8.60755181312561;32767;0;0
616;8.622097492218018;32767;1;1
617;8.63659405708313;32767;0;1
618;8.65115761756897;32767;1;1
