;Time;Thrust;BEM pressure;N2O pressure
0;0.0;0;0;0
1;0.0081024169921875;0;0;0
2;0.015338659286499023;0;0;0
3;0.022530794143676758;0;0;0
4;0.02972865104675293;0;0;0
5;0.036921024322509766;0;0;0
6;0.04421877861022949;0;0;0
7;0.05141854286193848;0;0;0
8;0.05861616134643555;0;0;0
9;0.06581282615661621;0;0;0
10;0.07300519943237305;0;0;0
11;0.08023190498352051;0;0;0
12;0.08742380142211914;0;0;0
13;0.09462833404541016;0;0;0
14;0.1018228530883789;0;0;0
15;0.10901689529418945;0;0;0
16;0.11622238159179688;0;0;0
17;0.12342000007629395;0;0;0
18;0.13062143325805664;0;0;0
19;0.13785004615783691;0;0;0
20;0.1450788974761963;0;0;0
21;0.15227603912353516;0;0;0
22;0.1594691276550293;0;0;0
23;0.16667556762695312;0;0;0
24;0.1738734245300293;0;0;0
25;0.18106889724731445;0;0;0
26;0.18826031684875488;0;0;0
27;0.19546937942504883;0;0;0
28;0.2026669979095459;0;0;0
29;0.20986247062683105;0;0;0
30;0.21706342697143555;0;0;0
31;0.2242579460144043;0;0;0
32;0.2314598560333252;0;0;0
33;0.2386474609375;0;0;0
34;0.2458646297454834;0;0;0
35;0.2530670166015625;0;0;0
36;0.26026487350463867;0;0;0
37;0.2674713134765625;0;0;0
38;0.27466750144958496;0;0;0
39;0.2819182872772217;0;0;0
40;0.28911757469177246;0;0;0
41;0.2963235378265381;0;0;0
42;0.30351829528808594;0;0;0
43;0.3107142448425293;0;0;0
44;0.31790590286254883;0;0;0
45;0.32509946823120117;0;0;0
46;0.33229494094848633;0;0;0
47;0.3394911289215088;0;0;0
48;0.3466975688934326;0;0;0
49;0.353924036026001;0;0;0
50;0.36113667488098145;0;0;0
51;0.3683335781097412;0;0;0
52;0.37552857398986816;0;0;0
53;0.38272786140441895;0;0;0
54;0.3899197578430176;0;0;0
55;0.3971254825592041;0;0;0
56;0.40432190895080566;0;0;0
57;0.4115455150604248;0;0;0
58;0.418743371963501;0;0;0
59;0.4259366989135742;0;0;0
60;0.43312978744506836;0;0;0
61;0.44032788276672363;0;0;0
62;0.44763994216918945;0;0;0
63;0.4548327922821045;0;0;0
64;0.4620707035064697;0;0;0
65;0.469266414642334;0;0;0
66;0.47645998001098633;0;0;0
67;0.4836580753326416;0;0;0
68;0.49097633361816406;0;0;0
69;0.49818849563598633;0;0;0
70;0.5054287910461426;0;0;0
71;0.512624979019165;0;0;0
72;0.5198233127593994;0;0;0
73;0.5270135402679443;0;0;0
74;0.5342066287994385;0;0;0
75;0.5414071083068848;0;0;0
76;0.5486032962799072;0;0;0
77;0.555797815322876;0;0;0
78;0.5629985332489014;0;0;0
79;0.5702693462371826;0;0;0
80;0.5774655342102051;0;0;0
81;0.5846569538116455;0;0;0
82;0.5918545722961426;0;0;0
83;0.5990509986877441;0;0;0
84;0.6062438488006592;0;0;0
85;0.6134343147277832;0;0;0
86;0.620638370513916;0;0;0
87;0.6278655529022217;0;0;0
88;0.6350641250610352;0;0;0
89;0.6422617435455322;0;0;0
90;0.6494665145874023;0;0;0
91;0.6566603183746338;0;0;0
92;0.6638538837432861;0;0;0
93;0.6710596084594727;0;0;0
94;0.6782572269439697;0;0;0
95;0.6854875087738037;0;0;0
96;0.6927359104156494;0;0;0
97;0.6999328136444092;0;0;0
98;0.7071268558502197;0;0;0
99;0.7143208980560303;0;0;0
100;0.7220401763916016;0;0;0
101;0.7300262451171875;0;0;0
102;0.7380056381225586;0;0;0
103;0.7473042011260986;0;0;0
104;0.755293607711792;0;0;0
105;0.7632720470428467;0;0;0
106;0.7712829113006592;0;0;0
107;0.77925705909729;0;0;0
108;0.7872083187103271;0;0;0
109;0.7952103614807129;0;0;0
110;0.8031933307647705;0;0;0
111;0.8111717700958252;0;0;0
112;0.8191883563995361;0;0;0
113;0.8271653652191162;0;0;0
114;0.8351423740386963;0;0;0
115;0.8431236743927002;0;0;0
116;0.8511092662811279;0;0;0
117;0.8590893745422363;0;0;0
118;0.867072582244873;0;0;0
119;0.8750615119934082;0;0;0
120;0.8830380439758301;0;0;0
121;0.8910167217254639;0;0;0
122;0.8990085124969482;0;0;0
123;0.9069919586181641;0;0;0
124;0.9149777889251709;0;0;0
125;0.92299485206604;0;0;0
126;0.9309864044189453;0;0;0
127;0.938962459564209;0;0;0
128;0.9470179080963135;0;0;0
129;0.9550082683563232;0;0;0
130;0.9662735462188721;0;0;0
131;0.9742457866668701;0;0;0
132;0.9821891784667969;0;0;0
133;0.9902389049530029;0;0;0
134;0.9982709884643555;0;0;0
135;1.006232738494873;0;0;0
136;1.0152435302734375;0;0;0
137;1.0232410430908203;0;0;0
138;1.031226634979248;0;0;0
139;1.0391902923583984;0;0;0
140;1.0472700595855713;0;0;0
141;1.055260181427002;0;0;0
142;1.063234567642212;0;0;0
143;1.071216344833374;0;0;0
144;1.079200267791748;0;0;0
145;1.087181568145752;0;0;0
146;1.0953073501586914;0;0;0
147;1.1032869815826416;0;0;0
148;1.1112735271453857;0;0;0
149;1.119293212890625;0;0;0
150;1.1272790431976318;0;0;0
151;1.1352591514587402;0;0;0
152;1.1432404518127441;0;0;0
153;1.1512296199798584;0;0;0
154;1.1592154502868652;0;0;0
155;1.1672577857971191;0;0;0
156;1.175246000289917;0;0;0
157;1.1832268238067627;0;0;0
158;1.1912007331848145;0;0;0
159;1.1992039680480957;0;0;0
160;1.2071874141693115;0;0;0
161;1.215240716934204;0;0;0
162;1.2232985496520996;0;0;0
163;1.2312569618225098;0;0;0
164;1.239229440689087;0;0;0
165;1.2472217082977295;0;0;0
166;1.2556583881378174;0;0;0
167;1.2636189460754395;0;0;0
168;1.271636724472046;0;0;0
169;1.2797064781188965;0;0;0
170;1.2876811027526855;0;0;0
171;1.295811414718628;0;0;0
172;1.303795576095581;0;0;0
173;1.311784029006958;0;0;0
174;1.319770336151123;0;0;0
175;1.3277952671051025;0;0;0
176;1.3357892036437988;0;0;0
177;1.3437740802764893;0;0;0
178;1.3517885208129883;0;0;0
179;1.3597803115844727;0;0;0
180;1.3677630424499512;0;0;0
181;1.3757603168487549;0;0;0
182;1.3837387561798096;0;0;0
183;1.3917121887207031;0;0;0
184;1.3997142314910889;0;0;0
185;1.407701015472412;0;0;0
186;1.41571044921875;0;0;0
187;1.4237346649169922;0;0;0
188;1.4317195415496826;0;0;0
189;1.4397058486938477;0;0;0
190;1.4477837085723877;0;0;0
191;1.4557693004608154;0;0;0
192;1.4637811183929443;0;0;0
193;1.4717655181884766;0;0;0
194;1.479748249053955;0;0;0
195;1.487748622894287;0;0;0
196;1.4958417415618896;0;0;0
197;1.5038323402404785;0;0;0
198;1.511812448501587;0;0;0
199;1.5197906494140625;0;0;0
200;1.5278208255767822;0;0;0
201;1.535804271697998;0;0;0
202;1.5438926219940186;0;0;0
203;1.551884651184082;0;0;0
204;1.5598673820495605;0;0;0
205;1.5678701400756836;0;0;0
206;1.5758605003356934;0;0;0
207;1.58384108543396;0;0;0
208;1.5918126106262207;0;0;0
209;1.5998241901397705;0;0;0
210;1.6078135967254639;0;0;0
211;1.615797519683838;0;0;0
212;1.623776912689209;0;0;0
213;1.6329283714294434;0;0;0
214;1.6409235000610352;0;0;0
215;1.6490702629089355;0;0;0
216;1.6570549011230469;0;0;0
217;1.665109395980835;0;0;0
218;1.6730892658233643;0;0;0
219;1.6810708045959473;0;0;0
220;1.6890363693237305;0;0;0
221;1.6971120834350586;0;0;0
222;1.7050964832305908;0;0;0
223;1.7130765914916992;0;0;0
224;1.7210540771484375;0;0;0
225;1.7290799617767334;0;0;0
226;1.737060308456421;0;0;0
227;1.7450568675994873;0;0;0
228;1.7530534267425537;0;0;0
229;1.7610352039337158;0;0;0
230;1.769038438796997;0;0;0
231;1.7770297527313232;0;0;0
232;1.7850139141082764;0;0;0
233;1.7929906845092773;0;0;0
234;1.8009979724884033;0;0;0
235;1.8089802265167236;0;0;0
236;1.8170521259307861;0;0;0
237;1.8250336647033691;0;0;0
238;1.8330576419830322;0;0;0
239;1.841033935546875;0;0;0
240;1.849031686782837;0;0;0
241;1.857025384902954;0;0;0
242;1.8650093078613281;0;0;0
243;1.8729887008666992;0;0;0
244;1.8809795379638672;0;0;0
245;1.8889546394348145;0;0;0
246;1.8969464302062988;0;0;0
247;1.904935359954834;0;0;0
248;1.912914514541626;0;0;0
249;1.9209568500518799;0;0;0
250;1.9289767742156982;0;0;0
251;1.9370100498199463;0;0;0
252;1.9450807571411133;0;0;0
253;1.953068733215332;0;0;0
254;1.961052656173706;0;0;0
255;1.9690420627593994;0;0;0
256;1.9770336151123047;0;0;0
257;1.9850225448608398;0;0;0
258;1.992990493774414;0;0;0
259;2.0009875297546387;0;0;0
260;2.0089757442474365;0;0;0
261;2.0170176029205322;0;0;0
262;2.024998903274536;0;0;0
263;2.0330207347869873;0;0;0
264;2.0410022735595703;0;0;0
265;2.0490059852600098;0;0;0
266;2.0569980144500732;0;0;0
267;2.0649771690368652;0;0;0
268;2.0729637145996094;0;0;0
269;2.0809571743011475;0;0;0
270;2.0889387130737305;0;0;0
271;2.09694504737854;0;0;0
272;2.1049489974975586;0;0;0
273;2.1129372119903564;0;0;0
274;2.1209235191345215;0;0;0
275;2.128904342651367;0;0;0
276;2.13692569732666;0;0;0
277;2.144963026046753;0;0;0
278;2.1529648303985596;0;0;0
279;2.1609561443328857;0;0;0
280;2.1689376831054688;0;0;0
281;2.176931142807007;0;0;0
282;2.1849234104156494;0;0;0
283;2.192934274673462;0;0;0
284;2.2010183334350586;0;0;0
285;2.2090015411376953;0;0;0
286;2.2170071601867676;0;0;0
287;2.22499680519104;0;0;0
288;2.2330241203308105;0;0;0
289;2.241006851196289;0;0;0
290;2.2490274906158447;0;0;0
291;2.2570159435272217;0;0;0
292;2.265007734298706;0;0;0
293;2.2730114459991455;0;0;0
294;2.281053066253662;0;0;0
295;2.289036750793457;0;0;0
296;2.29703950881958;0;0;0
297;2.305037260055542;0;0;0
298;2.3130264282226562;0;0;0
299;2.321012496948242;0;0;0
300;2.3290021419525146;0;0;0
301;2.337042808532715;0;0;0
302;2.345034122467041;0;0;0
303;2.353060722351074;0;0;0
304;2.361048460006714;0;0;0
305;2.369035243988037;0;0;0
306;2.377023458480835;0;0;0
307;2.385009527206421;0;0;0
308;2.3929898738861084;0;0;0
309;2.4009995460510254;0;0;0
310;2.408979892730713;0;0;0
311;2.4170074462890625;0;0;0
312;2.4250028133392334;0;0;0
313;2.432993173599243;0;0;0
314;2.441025972366333;0;0;0
315;2.449118137359619;0;0;0
316;2.45710825920105;0;0;0
317;2.4691078662872314;0;0;0
318;2.4770877361297607;0;0;0
319;2.4850354194641113;0;0;0
320;2.493109941482544;0;0;0
321;2.5012028217315674;0;0;0
322;2.5091772079467773;0;0;0
323;2.518266439437866;0;0;0
324;2.5262796878814697;0;0;0
325;2.534252643585205;0;0;0
326;2.542285442352295;0;0;0
327;2.550283193588257;0;0;0
328;2.558271646499634;0;0;0
329;2.566258430480957;0;0;0
330;2.574235200881958;0;0;0
331;2.582223415374756;0;0;0
332;2.590324640274048;0;0;0
333;2.598313093185425;0;0;0
334;2.606301784515381;0;0;0
335;2.6142795085906982;0;0;0
336;2.622316837310791;0;0;0
337;2.6302945613861084;0;0;0
338;2.6383230686187744;0;0;0
339;2.6463406085968018;0;0;0
340;2.6543331146240234;0;0;0
341;2.66231632232666;0;0;0
342;2.6702985763549805;0;0;0
343;2.6782963275909424;0;0;0
344;2.686286687850952;0;0;0
345;2.6942660808563232;0;0;0
346;2.7024402618408203;0;0;0
347;2.710423707962036;0;0;0
348;2.7184088230133057;0;0;0
349;2.7263941764831543;0;0;0
350;2.734379291534424;0;0;0
351;2.7424111366271973;0;0;0
352;2.7504079341888428;0;0;0
353;2.758389949798584;0;0;0
354;2.7663822174072266;0;0;0
355;2.774397373199463;0;0;0
356;2.7823827266693115;0;0;0
357;2.790365695953369;0;0;0
358;2.798363208770752;0;0;0
359;2.806353807449341;0;0;0
360;2.814340353012085;0;0;0
361;2.822328805923462;0;0;0
362;2.8303186893463135;0;0;0
363;2.838303804397583;0;0;0
364;2.8463470935821533;0;0;0
365;2.8543617725372314;0;0;0
366;2.862328052520752;0;0;0
367;2.8703718185424805;0;0;0
368;2.878364324569702;0;0;0
369;2.8863465785980225;0;0;0
370;2.894331216812134;0;0;0
371;2.902348518371582;0;0;0
372;2.910335063934326;0;0;0
373;2.91831374168396;0;0;0
374;2.9262936115264893;0;0;0
375;2.93428635597229;0;0;0
376;2.9423716068267822;0;0;0
377;2.950470209121704;0;0;0
378;2.9584667682647705;0;0;0
379;2.9664499759674072;0;0;0
380;2.974428415298462;0;0;0
381;2.9824166297912598;0;0;0
382;2.990407943725586;0;0;0
383;2.998399496078491;0;0;0
384;3.0063858032226562;0;0;0
385;3.014362335205078;0;0;0
386;3.0223495960235596;0;0;0
387;3.030334234237671;0;0;0
388;3.0383167266845703;0;0;0
389;3.0463385581970215;0;0;0
390;3.054335832595825;0;0;0
391;3.0623271465301514;0;0;0
392;3.070314645767212;0;0;0
393;3.0782997608184814;0;0;0
394;3.0862879753112793;0;0;0
395;3.0942862033843994;0;0;0
396;3.102350950241089;0;0;0
397;3.1103460788726807;0;0;0
398;3.118346929550171;0;0;0
399;3.1263344287872314;0;0;0
400;3.134310483932495;0;0;0
401;3.142294406890869;0;0;0
402;3.1503450870513916;0;0;0
403;3.1583425998687744;0;0;0
404;3.166325092315674;0;0;0
405;3.1743102073669434;0;0;0
406;3.1822941303253174;0;0;0
407;3.190279960632324;0;0;0
408;3.198381185531616;0;0;0
409;3.206376075744629;0;0;0
410;3.214372158050537;0;0;0
411;3.2223610877990723;0;0;0
412;3.2303502559661865;0;0;0
413;3.238337755203247;0;0;0
414;3.2463576793670654;0;0;0
415;3.2543604373931885;0;0;0
416;3.262336492538452;0;0;0
417;3.2703394889831543;0;0;0
418;3.2783238887786865;0;0;0
419;3.286311388015747;0;0;0
420;3.2942895889282227;0;0;0
421;3.302379608154297;0;0;0
422;3.310366630554199;0;0;0
423;3.3183510303497314;0;0;0
424;3.3263344764709473;0;0;0
425;3.3343605995178223;0;0;0
426;3.342352867126465;0;0;0
427;3.350459337234497;0;0;0
428;3.3584647178649902;0;0;0
429;3.3664486408233643;0;0;0
430;3.374452590942383;0;0;0
431;3.3824403285980225;0;0;0
432;3.3904247283935547;0;0;0
433;3.39841628074646;0;0;0
434;3.4076437950134277;0;0;0
435;3.415689706802368;0;0;0
436;3.4236745834350586;0;0;0
437;3.431657314300537;0;0;0
438;3.439645767211914;0;0;0
439;3.4476442337036133;0;0;0
440;3.4556539058685303;0;0;0
441;3.4636342525482178;0;0;0
442;3.4716150760650635;0;0;0
443;3.479686737060547;0;0;0
444;3.487668037414551;0;0;0
445;3.4956583976745605;0;0;0
446;3.5036449432373047;0;0;0
447;3.5116283893585205;0;0;0
448;3.519742488861084;0;0;0
449;3.527724266052246;0;0;0
450;3.53570818901062;0;0;0
451;3.5436863899230957;0;0;0
452;3.551724433898926;0;0;0
453;3.559711217880249;0;0;0
454;3.567690849304199;0;0;0
455;3.5756735801696777;0;0;0
456;3.5836589336395264;0;0;0
457;3.5916478633880615;0;0;0
458;3.5996453762054443;0;0;0
459;3.6076390743255615;0;0;0
460;3.6156725883483887;0;0;0
461;3.6236560344696045;0;0;0
462;3.631638288497925;0;0;0
463;3.6396877765655518;0;0;0
464;3.647674560546875;0;0;0
465;3.6556880474090576;0;0;0
466;3.6636674404144287;0;0;0
467;3.6716620922088623;0;0;0
468;3.679651975631714;0;0;0
469;3.6876418590545654;0;0;0
470;3.6956253051757812;0;0;0
471;3.703616142272949;0;0;0
472;3.711601734161377;0;0;0
473;3.7196624279022217;0;0;0
474;3.7276692390441895;0;0;0
475;3.735658645629883;0;0;0
476;3.7436323165893555;0;0;0
477;3.7516214847564697;0;0;0
478;3.759678840637207;0;0;0
479;3.7676823139190674;0;0;0
480;3.775693893432617;0;0;0
481;3.783672571182251;0;0;0
482;3.791651725769043;0;0;0
483;3.799644947052002;0;0;0
484;3.8076436519622803;0;0;0
485;3.8156356811523438;0;0;0
486;3.8236141204833984;0;0;0
487;3.83160400390625;0;0;0
488;3.839588165283203;0;0;0
489;3.8475801944732666;0;0;0
490;3.8556463718414307;0;0;0
491;3.863630771636963;0;0;0
492;3.8716142177581787;0;0;0
493;3.8796515464782715;0;0;0
494;3.887636184692383;0;0;0
495;3.895620346069336;0;0;0
496;3.9036130905151367;0;0;0
497;3.911593437194824;0;0;0
498;3.91957426071167;0;0;0
499;3.927608013153076;0;0;0
500;3.935640811920166;0;0;0
501;3.943627119064331;0;0;0
502;3.9516656398773193;0;0;0
503;3.9596633911132812;0;0;0
504;3.9708006381988525;0;0;0
505;3.9787709712982178;0;0;0
506;3.9867258071899414;0;0;0
507;3.994673013687134;0;0;0
508;4.002692937850952;0;0;0
509;4.010700225830078;0;0;0
510;4.018696308135986;0;0;0
511;4.026694059371948;0;0;0
512;4.034686803817749;0;0;0
513;4.04268479347229;0;0;0
514;4.050821542739868;0;0;0
515;4.058878421783447;0;0;0
516;4.066874265670776;0;0;0
517;4.074929237365723;0;0;0
518;4.082929849624634;0;0;0
519;4.090936899185181;0;0;0
520;4.098928213119507;0;0;0
521;4.107001543045044;0;0;0
522;4.115013599395752;0;0;0
523;4.123009443283081;0;0;0
524;4.1310107707977295;0;0;0
525;4.139002799987793;0;0;0
526;4.147116661071777;0;0;0
527;4.155245065689087;0;0;0
528;4.163241386413574;0;0;0
529;4.171231508255005;0;0;0
530;4.179223299026489;0;0;0
531;4.187215566635132;0;0;0
532;4.195213317871094;0;0;0
533;4.203279256820679;0;0;0
534;4.211277008056641;0;0;0
535;4.219300985336304;0;0;0
536;4.2272937297821045;0;0;0
537;4.235288381576538;0;0;0
538;4.243292331695557;0;0;0
539;4.25139307975769;0;0;0
540;4.259453296661377;0;0;0
541;4.267602920532227;0;0;0
542;4.275663614273071;0;0;0
543;4.283658742904663;0;0;0
544;4.292789936065674;0;0;0
545;4.300940275192261;0;0;0
546;4.308952808380127;0;0;0
547;4.3169941902160645;0;0;0
548;4.324982404708862;0;0;0
549;4.332966327667236;0;0;0
550;4.340969562530518;0;0;0
551;4.34895920753479;0;0;0
552;4.357146978378296;0;0;0
553;4.365143060684204;0;0;0
554;4.373623609542847;0;0;0
555;4.381626605987549;0;0;0
556;4.389686346054077;0;0;0
557;4.397675275802612;0;0;0
558;4.405684471130371;0;0;0
559;4.413695812225342;0;0;0
560;4.421711444854736;0;0;0
561;4.429717779159546;0;0;0
562;4.437709331512451;0;0;0
563;4.4457011222839355;0;0;0
564;4.453800439834595;0;0;0
565;4.461790084838867;0;0;0
566;4.469774961471558;0;0;0
567;4.4777610301971436;0;0;0
568;4.485750198364258;0;0;0
569;4.4937663078308105;0;0;0
570;4.5017735958099365;0;0;0
571;4.50978684425354;0;0;0
572;4.517780303955078;0;0;0
573;4.525776386260986;0;0;0
574;4.533770322799683;0;0;0
575;4.541767835617065;0;0;0
576;4.549761772155762;0;0;0
577;4.557809591293335;0;0;0
578;4.565799713134766;0;0;0
579;4.573797702789307;0;0;0
580;4.581793546676636;0;0;0
581;4.589792013168335;0;0;0
582;4.597782850265503;0;0;0
583;4.6057891845703125;0;0;0
584;4.613786697387695;0;0;0
585;4.62177848815918;0;0;0
586;4.629774570465088;0;0;0
587;4.637771368026733;0;0;0
588;4.645768404006958;0;0;0
589;4.653919458389282;0;0;0
590;4.661968231201172;0;0;0
591;4.669963121414185;0;0;0
592;4.6779608726501465;0;0;0
593;4.68595290184021;0;0;0
594;4.693943023681641;0;0;0
595;4.701989412307739;0;0;0
596;4.709996461868286;0;0;0
597;4.717997312545776;0;0;0
598;4.725996255874634;0;0;0
599;4.7339818477630615;0;0;0
600;4.741974115371704;0;0;0
601;4.750006914138794;0;0;0
602;4.758271932601929;0;0;0
603;4.766268491744995;0;0;0
604;4.774292945861816;0;0;0
605;4.782289266586304;0;0;0
606;4.790286064147949;0;0;0
607;4.798276424407959;0;0;0
608;4.8062896728515625;0;0;0
609;4.814278841018677;0;0;0
610;4.822350263595581;0;0;0
611;4.830346584320068;0;0;0
612;4.838345527648926;0;0;0
613;4.846339702606201;0;0;0
614;4.854429006576538;0;0;0
615;4.862473726272583;0;0;0
616;4.870460510253906;0;0;0
617;4.878451347351074;0;0;0
618;4.886446714401245;0;0;0
619;4.89443564414978;0;0;0
620;4.902505159378052;0;0;0
621;4.910529136657715;0;0;0
622;4.918527603149414;0;0;0
623;4.926532745361328;0;0;0
624;4.9345338344573975;0;0;0
625;4.9425060749053955;0;0;0
626;4.950689315795898;0;0;0
627;4.9587743282318115;0;0;0
628;4.967008113861084;0;0;0
629;4.9750189781188965;0;0;0
630;4.983011960983276;0;0;0
631;4.991003036499023;0;0;0
632;4.998988628387451;0;0;0
