;Time;Thrust;BEM pressure;N2O pressure
0;0.0;614;51;31244
1;0.008060455322265625;615;50;31244
2;0.01536250114440918;615;52;31251
3;0.022681236267089844;614;51;31252
4;0.030022859573364258;614;51;31240
5;0.0373380184173584;614;51;31253
6;0.044631004333496094;615;52;31243
7;0.05191993713378906;614;27;31250
8;0.05921816825866699;615;42;31249
9;0.06651067733764648;614;37;31241
10;0.07379937171936035;614;28;31234
11;0.08108997344970703;614;51;31253
12;0.0883784294128418;614;41;31255
13;0.09566617012023926;614;62;31247
14;0.10295414924621582;615;52;31249
15;0.11024332046508789;615;29;31240
16;0.11755108833312988;615;50;31248
17;0.12484216690063477;615;51;31252
18;0.13214325904846191;614;50;31239
19;0.1394367218017578;615;50;31249
20;0.14673781394958496;615;28;31238
21;0.15402460098266602;614;52;31255
22;0.16131210327148438;614;51;31246
23;0.16860175132751465;613;51;31248
24;0.17589020729064941;615;27;31239
25;0.18317961692810059;614;51;31244
26;0.19046854972839355;615;32;31244
27;0.19776201248168945;614;31;31260
28;0.2051081657409668;615;51;31243
29;0.21239542961120605;614;51;31244
30;0.21968293190002441;614;28;31243
31;0.2269735336303711;615;51;31246
32;0.23428034782409668;614;29;31243
33;0.24159479141235352;614;51;31246
34;0.2488863468170166;615;51;31239
35;0.25618529319763184;614;27;31262
36;0.2634906768798828;614;51;31262
37;0.2707805633544922;615;28;31255
38;0.27806997299194336;614;51;31227
39;0.28536558151245117;614;51;31256
40;0.29265427589416504;615;51;31243
41;0.29994869232177734;614;28;31245
42;0.30724215507507324;615;50;31249
43;0.3145327568054199;613;51;31253
44;0.3218221664428711;614;28;31245
45;0.3291130065917969;615;29;31237
46;0.3364531993865967;615;51;31249
47;0.34374403953552246;615;28;31252
48;0.35103511810302734;614;50;31263
49;0.3583226203918457;614;29;31248
50;0.36562371253967285;614;28;31254
51;0.37291646003723145;615;51;31250
52;0.3802073001861572;614;52;31237
53;0.3875436782836914;615;28;31244
54;0.3948404788970947;614;51;31246
55;0.40213608741760254;615;51;31259
56;0.4094269275665283;614;51;31248
57;0.4167180061340332;614;51;31240
58;0.42400598526000977;614;52;31246
59;0.43132448196411133;614;28;31243
60;0.4386167526245117;614;51;31256
61;0.44591665267944336;615;48;31248
62;0.45321083068847656;614;50;31250
63;0.4604990482330322;614;51;31250
64;0.4677863121032715;614;49;31241
65;0.47547340393066406;614;51;31250
66;0.4827876091003418;614;51;31252
67;0.4900820255279541;614;51;31257
68;0.4973733425140381;614;28;31254
69;0.5046660900115967;614;28;31250
70;0.5119905471801758;615;28;31250
71;0.5193397998809814;613;51;31257
72;0.5266437530517578;615;50;31246
73;0.5339357852935791;614;50;31251
74;0.5412306785583496;614;28;31240
75;0.5485236644744873;614;50;31251
76;0.5558125972747803;614;52;31247
77;0.563103199005127;614;50;31246
78;0.5704033374786377;614;50;31239
79;0.5776891708374023;614;28;31250
80;0.5849792957305908;615;30;31248
81;0.5922741889953613;615;50;31245
82;0.5995635986328125;614;51;31259
83;0.6068990230560303;615;70;31254
84;0.6141929626464844;614;51;31244
85;0.6215229034423828;615;51;31234
86;0.6288473606109619;614;51;31245
87;0.6361479759216309;615;33;31262
88;0.6434400081634521;615;50;31255
89;0.6507408618927002;614;50;31258
90;0.6580290794372559;614;44;31252
91;0.6653163433074951;614;68;31247
92;0.6726043224334717;614;28;31249
93;0.6799466609954834;614;51;31247
94;0.6872375011444092;614;28;31262
95;0.6945245265960693;615;28;31237
96;0.7018942832946777;614;50;31264
97;0.709195613861084;614;51;31264
98;0.7164826393127441;613;43;31239
99;0.723768949508667;614;37;31248
100;0.7310600280761719;615;27;31261
101;0.7383506298065186;614;29;31238
102;0.7456860542297363;615;51;31251
103;0.7546977996826172;615;28;31249
104;0.7626609802246094;614;51;31247
105;0.7706210613250732;615;29;31246
106;0.7785861492156982;614;28;31244
107;0.7866301536560059;615;46;31250
108;0.7946066856384277;614;51;31254
109;0.8025720119476318;614;36;31255
110;0.810537576675415;614;50;31245
111;0.8184976577758789;613;51;31249
112;0.8264608383178711;614;52;31255
113;0.8345255851745605;614;52;31247
114;0.842515230178833;613;52;31249
115;0.8505923748016357;615;50;31252
116;0.8585574626922607;615;51;31232
117;0.8665194511413574;615;51;31249
118;0.8745303153991699;614;52;31246
119;0.8824982643127441;615;50;31260
120;0.8905212879180908;614;46;31244
121;0.8984861373901367;614;51;31249
122;0.9064550399780273;615;41;31251
123;0.9144189357757568;614;51;31255
124;0.9224376678466797;614;39;31249
125;0.930455207824707;614;28;31255
126;0.9384286403656006;614;64;31245
127;0.9464249610900879;614;73;31256
128;0.9543874263763428;614;65;31242
129;0.962407112121582;614;51;31253
130;0.9704275131225586;613;46;31260
131;0.9783899784088135;614;50;31252
132;0.986351490020752;614;29;31264
133;0.9943215847015381;615;28;31264
134;1.0023505687713623;614;68;31258
135;1.0106103420257568;614;78;31321
136;1.01859450340271;614;65;31273
137;1.0266237258911133;615;95;31295
138;1.0345978736877441;615;91;31289
139;1.0425670146942139;614;91;31290
140;1.0506312847137451;614;69;31286
141;1.058603048324585;614;92;31293
142;1.0666263103485107;615;92;31289
143;1.0745949745178223;615;81;31288
144;1.0825624465942383;615;92;31296
145;1.0905351638793945;614;69;31285
146;1.098496437072754;614;69;31298
147;1.1064660549163818;614;68;31284
148;1.1145670413970947;614;92;31290
149;1.1225428581237793;614;92;31291
150;1.130535364151001;614;92;31277
151;1.1385078430175781;615;92;31297
152;1.1464815139770508;615;77;31294
153;1.1545441150665283;614;69;31289
154;1.1625134944915771;614;91;31285
155;1.1705341339111328;615;92;31287
156;1.1785011291503906;614;82;31275
157;1.1864688396453857;615;93;31286
158;1.1944358348846436;615;100;31272
159;1.202467918395996;614;92;31275
160;1.2104885578155518;614;96;31281
161;1.2184524536132812;615;73;31285
162;1.2264177799224854;614;69;31279
163;1.2343873977661133;614;84;31280
164;1.2424085140228271;615;91;31267
165;1.2504703998565674;615;106;31284
166;1.2584428787231445;613;92;31282
167;1.2664105892181396;615;69;31279
168;1.2743828296661377;614;91;31293
169;1.2824127674102783;615;92;31276
170;1.29044508934021;614;91;31270
171;1.2984182834625244;614;92;31289
172;1.306391954421997;613;91;31274
173;1.3143656253814697;614;70;31280
174;1.322392463684082;614;74;31285
175;1.3304121494293213;614;92;31277
176;1.3383851051330566;614;92;31265
177;1.3463516235351562;614;70;31269
178;1.354360580444336;614;100;31272
179;1.3623831272125244;615;114;31277
180;1.3704009056091309;614;79;31271
181;1.3783676624298096;615;92;31273
182;1.386335849761963;614;91;31276
183;1.3943042755126953;615;92;31271
184;1.4023394584655762;614;91;31284
185;1.410309076309204;615;92;31283
186;1.4182798862457275;614;98;31268
187;1.4263520240783691;614;96;31282
188;1.4343433380126953;614;115;31264
189;1.4424395561218262;614;92;31269
190;1.450507640838623;614;109;31271
191;1.4585659503936768;614;92;31273
192;1.4666061401367188;613;91;31279
193;1.47458815574646;614;109;31288
194;1.4825501441955566;614;92;31280
195;1.4905414581298828;614;93;31275
196;1.4985058307647705;615;92;31274
197;1.5064713954925537;614;92;31276
198;1.5144338607788086;615;91;31261
199;1.5224905014038086;614;93;31261
200;1.5305192470550537;614;70;31270
201;1.5384953022003174;614;84;31278
202;1.5464653968811035;613;70;31259
203;1.5545177459716797;615;87;31263
204;1.562492847442627;613;71;31277
205;1.570539951324463;615;72;31271
206;1.5785086154937744;615;87;31269
207;1.5864765644073486;615;90;31260
208;1.5945401191711426;615;92;31265
209;1.6025474071502686;614;92;31272
210;1.6105320453643799;615;83;31274
211;1.6185007095336914;614;91;31260
212;1.6265325546264648;615;92;31263
213;1.6356463432312012;614;92;31276
214;1.6436188220977783;615;69;31270
215;1.6515939235687256;613;77;31248
216;1.6595563888549805;614;91;31265
217;1.6675207614898682;614;91;31271
218;1.6754794120788574;615;92;31266
219;1.6834399700164795;614;91;31256
220;1.6914033889770508;615;92;31265
221;1.6993684768676758;615;85;31256
222;1.707416296005249;616;91;31264
223;1.7153828144073486;614;92;31277
224;1.7234070301055908;614;111;31260
225;1.7313742637634277;615;91;31271
226;1.7393386363983154;615;92;31271
227;1.7473020553588867;615;92;31266
228;1.7553107738494873;615;92;31273
229;1.7632791996002197;614;92;31259
230;1.771242380142212;614;106;31257
231;1.7792706489562988;614;91;31273
232;1.787238359451294;614;87;31262
233;1.795262336730957;615;92;31253
234;1.8032293319702148;614;90;31265
235;1.8111960887908936;614;85;31269
236;1.819157361984253;615;91;31275
237;1.8271856307983398;614;91;31261
238;1.835263967514038;614;91;31263
239;1.843280553817749;614;92;31257
240;1.8512558937072754;614;69;31264
241;1.8592782020568848;615;68;31264
242;1.8672542572021484;614;91;31258
243;1.8752250671386719;614;78;31243
244;1.8831899166107178;614;91;31276
245;1.891157865524292;615;69;31250
246;1.8991279602050781;614;74;31260
247;1.907177209854126;614;88;31266
248;1.9151952266693115;614;75;31265
249;1.9231617450714111;614;92;31257
250;1.9311318397521973;614;91;31262
251;1.9390995502471924;614;68;31262
252;1.9471232891082764;614;80;31260
253;1.9551384449005127;613;69;31268
254;1.9631483554840088;614;92;31258
255;1.9711377620697021;615;91;31261
256;1.9795734882354736;614;91;31262
257;1.987562656402588;614;92;31257
258;1.995539665222168;615;106;31264
259;2.003506660461426;614;92;31271
260;2.011481523513794;613;92;31267
261;2.0194578170776367;614;92;31260
262;2.0274345874786377;615;69;31273
263;2.0355050563812256;614;92;31260
264;2.043527603149414;615;91;31270
265;2.0515058040618896;615;69;31268
266;2.0595221519470215;614;76;31268
267;2.0674962997436523;614;72;31256
268;2.0754666328430176;615;71;31255
269;2.083433151245117;615;91;31259
270;2.0913963317871094;615;69;31259
271;2.099364757537842;615;80;31255
272;2.107332468032837;614;92;31259
273;2.11535906791687;615;81;31257
274;2.1233224868774414;614;91;31250
275;2.131300449371338;614;92;31252
276;2.139281988143921;615;70;31262
277;2.14725399017334;614;88;31250
278;2.1552188396453857;615;91;31262
279;2.1631855964660645;614;92;31259
280;2.1711528301239014;614;92;31259
281;2.1791224479675293;614;69;31263
282;2.1871862411499023;614;92;31272
283;2.1952168941497803;614;92;31254
284;2.2032039165496826;614;69;31252
285;2.2111682891845703;614;91;31262
286;2.2191383838653564;615;83;31256
287;2.227172374725342;614;92;31256
288;2.235194683074951;615;92;31254
289;2.2432446479797363;614;91;31260
290;2.251244306564331;614;98;31255
291;2.2593233585357666;614;92;31249
292;2.2672975063323975;615;74;31241
293;2.275263547897339;615;92;31258
294;2.2832283973693848;614;92;31253
295;2.2912025451660156;614;82;31258
296;2.2991840839385986;615;91;31267
297;2.3072028160095215;614;93;31257
298;2.315220594406128;615;91;31255
299;2.3231873512268066;614;92;31246
300;2.331157922744751;615;69;31253
301;2.339125394821167;614;92;31265
302;2.3471457958221436;613;92;31241
303;2.35516095161438;615;75;31255
304;2.3631720542907715;615;91;31266
305;2.3711419105529785;615;92;31261
306;2.3791067600250244;614;85;31255
307;2.387129545211792;614;92;31253
308;2.3951547145843506;614;91;31245
309;2.4031288623809814;615;92;31248
310;2.411092758178711;614;93;31248
311;2.4190592765808105;615;92;31252
312;2.427079200744629;614;91;31239
313;2.435093402862549;614;91;31249
314;2.4430601596832275;614;77;31254
315;2.4510509967803955;614;92;31245
316;2.459019899368286;613;91;31248
317;2.4670796394348145;614;91;31249
318;2.4750876426696777;613;71;31252
319;2.483053684234619;614;92;31250
320;2.4910404682159424;615;69;31255
321;2.499008893966675;615;91;31247
322;2.506990909576416;615;69;31249
323;2.516116142272949;614;91;31248
324;2.5241308212280273;615;91;31240
325;2.532100200653076;614;93;31248
326;2.5400688648223877;615;69;31247
327;2.548037528991699;615;91;31250
328;2.55600643157959;615;92;31251
329;2.5640132427215576;614;68;31258
330;2.5719776153564453;614;92;31249
331;2.5799436569213867;614;93;31242
332;2.587920665740967;615;76;31246
333;2.5958900451660156;614;93;31252
334;2.6039063930511475;615;88;31235
335;2.6118690967559814;615;92;31248
336;2.6198394298553467;614;91;31243
337;2.627983808517456;614;91;31252
338;2.6359641551971436;614;92;31249
339;2.6439292430877686;614;92;31247
340;2.651902675628662;615;92;31246
341;2.6598801612854004;615;92;31262
342;2.6678977012634277;614;92;31262
343;2.6758596897125244;615;93;31249
344;2.6838207244873047;614;91;31254
345;2.6917879581451416;614;92;31254
346;2.6998202800750732;614;91;31240
347;2.707935094833374;615;108;31234
348;2.7159006595611572;615;112;31237
349;2.723869800567627;614;92;31253
350;2.7318923473358154;614;92;31257
351;2.7398767471313477;615;92;31253
352;2.7479629516601562;615;91;31254
353;2.755941152572632;614;92;31242
354;2.763943672180176;616;77;31244
355;2.771919012069702;614;68;31239
356;2.779892921447754;614;80;31236
357;2.787867307662964;614;92;31238
358;2.795844316482544;614;91;31251
359;2.803814172744751;614;92;31253
360;2.8117873668670654;615;92;31245
361;2.819826364517212;615;92;31253
362;2.8278536796569824;613;72;31250
363;2.835820198059082;614;92;31242
364;2.843845844268799;615;69;31236
365;2.85182523727417;614;92;31246
366;2.8598082065582275;614;70;31247
367;2.867893934249878;614;96;31248
368;2.8758649826049805;614;91;31235
369;2.8838348388671875;615;91;31246
370;2.8918142318725586;614;93;31236
371;2.8998446464538574;615;91;31245
372;2.907872200012207;614;69;31223
373;2.9158365726470947;615;85;31249
374;2.9238011837005615;615;115;31249
375;2.931769847869873;614;90;31239
376;2.939796209335327;615;87;31244
377;2.9478256702423096;614;89;31246
378;2.955796718597412;615;107;31250
379;2.9637632369995117;615;92;31228
380;2.971771478652954;614;79;31259
381;2.9797918796539307;614;91;31237
382;2.987816333770752;614;92;31241
383;2.9957897663116455;615;91;31240
384;3.003754138946533;614;79;31247
385;3.0117225646972656;614;70;31239
386;3.019752025604248;614;92;31235
387;3.0277798175811768;614;91;31238
388;3.0357484817504883;615;68;31232
389;3.0437161922454834;614;92;31253
390;3.051685094833374;614;91;31240
391;3.059708833694458;614;69;31238
392;3.067765474319458;615;92;31230
393;3.075735330581665;613;92;31241
394;3.08369517326355;614;68;31247
395;3.0916597843170166;614;92;31252
396;3.099684000015259;615;92;31229
397;3.107651472091675;614;91;31239
398;3.115644931793213;614;91;31235
399;3.1236093044281006;614;70;31236
400;3.131588935852051;615;96;31244
401;3.139563798904419;614;70;31252
402;3.1475305557250977;615;77;31252
403;3.1555020809173584;615;90;31245
404;3.163463830947876;615;92;31231
405;3.171480178833008;615;91;31254
406;3.179450511932373;615;82;31239
407;3.1874170303344727;615;70;31229
408;3.1953818798065186;615;93;31238
409;3.2033519744873047;616;111;31243
410;3.2113165855407715;615;114;31235
411;3.219289541244507;615;92;31241
412;3.227252244949341;614;92;31228
413;3.2352232933044434;615;80;31244
414;3.2431883811950684;614;92;31240
415;3.25118088722229;615;92;31244
416;3.259147882461548;614;92;31244
417;3.267298698425293;614;104;31240
418;3.2753500938415527;615;92;31240
419;3.2833173274993896;615;92;31233
420;3.291290760040283;614;70;31239
421;3.2993035316467285;614;92;31243
422;3.3072760105133057;614;91;31235
423;3.315244674682617;614;91;31242
424;3.3232078552246094;615;91;31230
425;3.33119535446167;614;92;31233
426;3.3391637802124023;614;81;31236
427;3.3471994400024414;615;92;31244
428;3.3552160263061523;615;91;31219
429;3.3631832599639893;614;114;31239
430;3.371206283569336;614;81;31243
431;3.3791801929473877;614;69;31240
432;3.3871920108795166;614;92;31238
433;3.395207405090332;615;82;31227
434;3.404331684112549;614;92;31234
435;3.4123852252960205;615;92;31245
436;3.420403480529785;615;91;31235
437;3.4283642768859863;615;80;31246
438;3.4363276958465576;614;91;31225
439;3.4442877769470215;615;84;31232
440;3.452256917953491;615;90;31241
441;3.460218906402588;614;71;31235
442;3.4681825637817383;614;74;31233
443;3.4766616821289062;615;79;31231
444;3.4847280979156494;615;92;31231
445;3.492691993713379;615;79;31233
446;3.5006611347198486;615;114;31224
447;3.5086259841918945;614;69;31240
448;3.5165936946868896;615;68;31240
449;3.524568557739258;614;71;31244
450;3.5325260162353516;614;92;31239
451;3.540560722351074;615;91;31237
452;3.548534631729126;615;80;31232
453;3.5565073490142822;615;69;31235
454;3.564537286758423;615;91;31229
455;3.572545051574707;615;93;31234
456;3.5805165767669678;615;78;31237
457;3.588484764099121;614;68;31241
458;3.5964479446411133;615;91;31240
459;3.6044199466705322;614;92;31242
460;3.61246657371521;615;74;31229
461;3.620499610900879;614;91;31242
462;3.6284735202789307;614;92;31229
463;3.6364593505859375;614;92;31224
464;3.6444251537323;614;91;31241
465;3.652458429336548;616;106;31235
466;3.660475969314575;615;92;31218
467;3.6684436798095703;615;91;31235
468;3.6764791011810303;615;92;31233
469;3.684499979019165;615;93;31226
470;3.6924803256988525;615;69;31233
471;3.7005515098571777;614;70;31234
472;3.7086780071258545;615;114;31217
473;3.716648817062378;614;93;31230
474;3.7246196269989014;615;91;31223
475;3.73258376121521;614;76;31237
476;3.740550994873047;615;95;31236
477;3.748518943786621;615;92;31227
478;3.7564804553985596;615;75;31233
479;3.7644429206848145;614;91;31237
480;3.772550582885742;615;76;31229
481;3.780564308166504;614;91;31234
482;3.788529872894287;615;82;31228
483;3.7965035438537598;615;92;31225
484;3.8045284748077393;614;82;31233
485;3.8124945163726807;615;91;31219
486;3.820509910583496;614;92;31226
487;3.828481912612915;615;91;31227
488;3.8364527225494385;615;85;31224
489;3.84454083442688;614;92;31216
490;3.8525168895721436;614;98;31224
491;3.8605339527130127;614;89;31224
492;3.8685038089752197;615;69;31233
493;3.8765108585357666;615;92;31216
494;3.884526491165161;615;92;31226
495;3.892500400543213;615;91;31230
496;3.9005229473114014;615;91;31229
497;3.9084858894348145;614;93;31228
498;3.9164531230926514;615;69;31230
499;3.9244167804718018;615;92;31230
500;3.93243670463562;615;91;31225
501;3.9404542446136475;615;76;31232
502;3.948425531387329;615;92;31226
503;3.9563968181610107;615;91;31239
504;3.9643640518188477;615;69;31226
505;3.972384452819824;614;92;31242
506;3.9804489612579346;614;91;31218
507;3.988419532775879;614;69;31223
508;3.996394157409668;615;92;31221
509;4.0043675899505615;614;69;31218
510;4.012402534484863;614;92;31225
511;4.020442724227905;615;91;31228
512;4.028410196304321;614;103;31222
513;4.036374807357788;614;93;31222
514;4.044342517852783;615;84;31216
515;4.052385568618774;615;92;31216
516;4.060412645339966;614;92;31231
517;4.068373918533325;615;91;31233
518;4.076343059539795;614;92;31232
519;4.084353446960449;615;87;31234
520;4.092370510101318;615;89;31224
521;4.100386142730713;614;84;31219
522;4.1083598136901855;614;91;31230
523;4.1163294315338135;615;92;31223
524;4.124359369277954;614;92;31217
525;4.132425308227539;615;81;31224
526;4.140455007553101;614;91;31230
527;4.148418664932251;615;82;31226
528;4.156382322311401;614;91;31225
529;4.164344549179077;615;92;31228
530;4.17236590385437;615;91;31226
531;4.180425405502319;615;69;31229
532;4.188390493392944;614;92;31217
533;4.196356773376465;614;92;31214
534;4.204324007034302;615;86;31208
535;4.212370872497559;614;91;31221
536;4.220388889312744;615;92;31225
537;4.228358030319214;615;92;31227
538;4.236329793930054;615;91;31231
539;4.244298696517944;615;69;31223
540;4.2523353099823;614;92;31220
541;4.260300636291504;614;91;31233
542;4.2682671546936035;614;91;31214
543;4.2762370109558105;614;92;31221
544;4.285369873046875;615;91;31222
545;4.2933526039123535;614;81;31220
546;4.301320314407349;614;91;31220
547;4.3092873096466064;614;83;31223
548;4.317252159118652;615;72;31215
549;4.325220108032227;615;90;31221
550;4.333180665969849;614;75;31215
551;4.341145038604736;615;69;31212
552;4.349106311798096;615;92;31218
553;4.357136249542236;614;91;31226
554;4.365149974822998;614;81;31227
555;4.373115062713623;615;91;31222
556;4.38112211227417;614;91;31231
557;4.389094352722168;614;91;31224
558;4.397114992141724;614;91;31225
559;4.4051408767700195;615;68;31212
560;4.413113117218018;614;110;31230
