;Time;Thrust;BEM pressure;N2O pressure
0;0.0;163835;5;0
1;0.012473821640014648;163835;5;0
2;0.027127742767333984;163835;0;0
3;0.039881229400634766;163835;5;-5
4;0.05265498161315918;163835;0;5
5;0.0652155876159668;163835;5;0
6;0.07778310775756836;163835;0;5
7;0.09044480323791504;163835;5;0
8;0.10297560691833496;163835;0;5
9;0.1155540943145752;163835;5;0
10;0.12810897827148438;163835;0;-5
11;0.14081454277038574;163835;5;0
12;0.15340495109558105;163835;0;0
13;0.16600394248962402;163835;0;0
14;0.178558349609375;163835;0;0
15;0.19117498397827148;163835;0;0
16;0.20374464988708496;163835;0;5
17;0.21623849868774414;163835;0;-5
18;0.2322862148284912;163835;5;5
19;0.24689292907714844;163835;0;0
20;0.2615237236022949;163835;0;-5
21;0.2760474681854248;163835;5;5
22;0.29052233695983887;163835;0;0
23;0.3043398857116699;163835;5;0
24;0.3192257881164551;163835;0;0
25;0.3337063789367676;163835;0;0
26;0.3476080894470215;163835;0;0
27;0.362684965133667;163835;0;0
28;0.37725377082824707;163835;5;-5
29;0.3920574188232422;163835;5;0
30;0.40660834312438965;163835;5;0
31;0.4210190773010254;163835;0;5
32;0.43554067611694336;163835;0;5
33;0.4501824378967285;163835;-5;5
34;0.46483612060546875;163835;5;0
35;0.47932887077331543;163835;0;0
36;0.4936707019805908;163835;5;0
37;0.5074384212493896;163835;0;-5
38;0.5223002433776855;163835;0;0
39;0.5371990203857422;163835;0;0
40;0.5545389652252197;163835;-5;0
41;0.5692145824432373;163835;5;5
42;0.5838184356689453;163835;0;-5
43;0.5985190868377686;163835;0;0
44;0.6132500171661377;163835;5;-5
45;0.6278924942016602;163835;0;0
46;0.6421952247619629;163835;0;0
47;0.656865119934082;163835;0;0
48;0.6715691089630127;163835;5;0
49;0.6861827373504639;163835;5;0
50;0.7007434368133545;163835;5;0
51;0.7151792049407959;163835;5;0
52;0.730198860168457;163835;0;5
53;0.744776725769043;163835;0;5
54;0.7593643665313721;163835;5;5
55;0.773867130279541;163835;5;5
56;0.788538932800293;163835;0;0
57;0.8033087253570557;163835;0;5
58;0.8178315162658691;163835;0;0
59;0.8318331241607666;163835;5;0
60;0.8460869789123535;163835;5;0
61;0.8604025840759277;163835;0;0
62;0.8746564388275146;163835;0;0
63;0.8893492221832275;163835;5;0
64;0.9039299488067627;163835;0;0
65;0.9184656143188477;163835;0;0
66;0.9329633712768555;163835;0;0
67;0.947735071182251;163835;0;0
68;0.9624128341674805;163835;0;5
69;0.9760167598724365;163835;5;0
70;0.9889872074127197;163835;0;0
71;1.0015668869018555;163835;0;0
72;1.014169692993164;163835;5;0
73;1.0287723541259766;163835;0;-5
74;1.0432052612304688;163835;0;5
75;1.0578699111938477;163835;0;0
76;1.072624683380127;163835;5;0
77;1.087320327758789;163835;0;0
78;1.1018502712249756;163835;0;0
79;1.1167290210723877;163835;5;5
80;1.1315248012542725;163835;5;5
81;1.146031379699707;163835;0;0
82;1.1607050895690918;163835;0;0
83;1.175351858139038;163835;0;5
84;1.1900806427001953;163835;0;0
85;1.2046523094177246;163835;0;0
86;1.2193002700805664;163835;5;0
87;1.2336978912353516;163835;-5;0
88;1.2482256889343262;163835;5;5
89;1.2629725933074951;163835;0;0
90;1.2779512405395508;163835;0;0
91;1.292409896850586;163835;0;0
92;1.3067896366119385;163835;0;0
93;1.3214654922485352;163835;0;-5
94;1.33607816696167;163835;0;0
95;1.3503429889678955;163835;5;0
96;1.3649468421936035;163835;5;0
97;1.3792412281036377;163835;5;5
98;1.3935623168945312;163835;0;5
99;1.407383918762207;163835;0;0
100;1.4219157695770264;163835;0;0
101;1.4364283084869385;163835;0;5
102;1.4511771202087402;163835;0;0
103;1.4657049179077148;163835;0;5
104;1.480203628540039;163835;5;0
105;1.4937453269958496;163835;0;0
106;1.506598949432373;163835;5;5
107;1.5191948413848877;163835;5;10
108;1.533642292022705;163835;5;0
109;1.5478720664978027;163835;-5;0
110;1.5624890327453613;163835;0;5
111;1.5769968032836914;163835;5;0
112;1.5915603637695312;163835;0;0
113;1.6073501110076904;163835;5;0
114;1.622040033340454;163835;-5;0
115;1.6362135410308838;163835;5;-5
116;1.6507933139801025;163835;0;5
117;1.6652140617370605;163835;5;5
118;1.6799180507659912;163835;5;0
119;1.694835901260376;163835;0;5
120;1.709428310394287;163835;0;0
121;1.724046230316162;163835;0;0
122;1.738584041595459;163835;5;0
123;1.7535486221313477;163835;5;5
124;1.7680554389953613;163835;5;0
125;1.7824862003326416;163835;5;0
126;1.7967441082000732;163835;0;0
127;1.8115358352661133;163835;5;0
128;1.8257954120635986;163835;0;5
129;1.8398301601409912;163835;5;-5
130;1.853982925415039;163835;0;0
131;1.868173599243164;163835;0;5
132;1.8822753429412842;163835;0;-5
133;1.8961811065673828;163835;5;0
134;1.9103269577026367;163835;5;0
135;1.9247355461120605;163835;0;-5
136;1.9386653900146484;163835;5;0
137;1.952847957611084;163835;0;0
138;1.9671027660369873;163835;0;0
139;1.981771469116211;163835;0;5
140;1.9953281879425049;163835;0;0
141;2.008894920349121;163835;0;0
142;2.021498441696167;163835;0;5
143;2.0348782539367676;163835;5;5
144;2.0488150119781494;163835;0;0
145;2.063690662384033;163835;5;0
146;2.0775904655456543;163835;0;0
147;2.091862201690674;163835;0;0
148;2.1058127880096436;163835;5;-5
149;2.1206085681915283;163835;5;5
150;2.1343815326690674;163835;0;0
151;2.1489412784576416;163835;0;0
152;2.1631627082824707;163835;0;0
153;2.177633762359619;163835;5;0
154;2.1943295001983643;163835;5;0
155;2.2084500789642334;163835;0;0
156;2.2223968505859375;163835;0;5
157;2.2361536026000977;163835;0;0
158;2.250176429748535;163835;0;0
159;2.2638020515441895;163835;0;5
160;2.2778496742248535;163835;0;0
161;2.2919085025787354;163835;0;0
162;2.3054893016815186;163835;0;5
163;2.3191630840301514;163835;5;0
164;2.3331966400146484;163835;5;0
165;2.3473594188690186;163835;0;0
166;2.361370086669922;163835;0;0
167;2.375330686569214;163835;5;0
168;2.3893043994903564;163835;0;0
169;2.4033243656158447;163835;0;0
170;2.417402982711792;163835;5;0
171;2.4315176010131836;163835;0;5
172;2.445735216140747;163835;0;0
173;2.4598751068115234;163835;0;5
174;2.474069833755493;163835;0;0
175;2.4881696701049805;163835;0;0
176;2.502472400665283;163835;0;0
177;2.516202211380005;163835;5;0
178;2.529958724975586;163835;0;0
179;2.544109344482422;163835;5;0
180;2.558582067489624;163835;5;-5
181;2.5727899074554443;163835;5;0
182;2.5867247581481934;163835;0;0
183;2.6010444164276123;163835;5;0
184;2.614826202392578;163835;5;5
185;2.629112720489502;163835;5;0
186;2.643399477005005;163835;5;0
187;2.6581332683563232;163835;0;0
188;2.672852039337158;163835;0;5
189;2.687042713165283;163835;0;0
190;2.7011165618896484;163835;0;0
191;2.715257167816162;163835;5;5
192;2.7291009426116943;163835;5;0
193;2.7431726455688477;163835;0;0
194;2.757150411605835;163835;0;5
195;2.771167039871216;163835;5;0
196;2.784789800643921;163835;0;0
197;2.798861503601074;163835;0;0
198;2.8132143020629883;163835;0;5
199;2.8273708820343018;163835;5;0
200;2.841585874557495;163835;-5;-5
201;2.8557794094085693;163835;0;0
202;2.869647264480591;163835;0;0
203;2.8835959434509277;163835;5;0
204;2.897237539291382;163835;0;5
205;2.9113383293151855;163835;0;5
206;2.925067186355591;163835;0;5
207;2.9392807483673096;163835;5;0
208;2.952918291091919;163835;0;5
209;2.9668643474578857;163835;0;0
210;2.980560064315796;163835;5;5
211;2.993959426879883;163835;0;-5
212;3.0064902305603027;163835;0;0
213;3.0192999839782715;163835;5;0
214;3.0336625576019287;163835;5;0
215;3.048203468322754;163835;0;5
216;3.0624210834503174;163835;5;0
217;3.0768349170684814;163835;5;5
218;3.091092586517334;163835;0;0
219;3.1058473587036133;163835;5;0
220;3.12056827545166;163835;-5;-5
221;3.134354829788208;163835;0;0
222;3.1485185623168945;163835;0;0
223;3.1628353595733643;163835;5;0
224;3.1767210960388184;163835;0;0
225;3.19075870513916;163835;5;-5
226;3.2048492431640625;163835;5;5
227;3.218968152999878;163835;0;0
228;3.2331528663635254;163835;5;0
229;3.2473955154418945;163835;5;5
230;3.2616734504699707;163835;5;0
231;3.2759599685668945;163835;0;0
232;3.289982795715332;163835;5;0
233;3.3040313720703125;163835;0;0
234;3.318153142929077;163835;0;0
235;3.3325207233428955;163835;0;0
236;3.3464226722717285;163835;0;5
237;3.360832452774048;163835;0;5
238;3.375185012817383;163835;0;5
239;3.3892247676849365;163835;0;5
240;3.4033544063568115;163835;0;0
241;3.417245388031006;163835;5;0
242;3.4311840534210205;163835;5;5
243;3.4453859329223633;163835;5;5
244;3.4593043327331543;163835;0;0
245;3.4735231399536133;163835;0;0
246;3.4878780841827393;163835;5;0
247;3.5015976428985596;163835;5;0
248;3.514979124069214;163835;0;5
249;3.527566909790039;163835;5;0
250;3.5403685569763184;163835;0;5
251;3.554565191268921;163835;5;0
252;3.568753957748413;163835;0;0
253;3.58284068107605;163835;5;0
254;3.5970635414123535;163835;0;5
255;3.611370086669922;163835;0;0
256;3.625692129135132;163835;0;0
257;3.639923572540283;163835;0;5
258;3.654557466506958;163835;5;5
259;3.6688592433929443;163835;5;0
260;3.683121681213379;163835;5;5
261;3.6974806785583496;163835;0;0
262;3.712306261062622;163835;5;0
263;3.7264511585235596;163835;0;0
264;3.740614652633667;163835;0;0
265;3.7568697929382324;163835;0;0
266;3.771148443222046;163835;0;5
267;3.7853612899780273;163835;0;-5
268;3.799698829650879;163835;0;5
269;3.8139045238494873;163835;5;5
270;3.8280603885650635;163835;0;0
271;3.8424930572509766;163835;5;0
272;3.856308937072754;163835;5;0
273;3.870586395263672;163835;0;0
274;3.8843932151794434;163835;0;0
275;3.8981690406799316;163835;5;5
276;3.912210464477539;163835;5;0
277;3.9263803958892822;163835;5;5
278;3.940211057662964;163835;5;0
279;3.954502820968628;163835;5;5
280;3.968442440032959;163835;0;0
281;3.9822702407836914;163835;0;0
282;3.996407985687256;163835;5;0
283;4.0101478099823;163835;0;0
284;4.0236945152282715;163835;5;0
285;4.036259889602661;163835;5;0
286;4.049057722091675;163835;5;0
287;4.063440561294556;163835;0;0
288;4.0780112743377686;163835;0;0
289;4.092728853225708;163835;0;0
290;4.107146501541138;163835;0;0
291;4.122073411941528;163835;5;0
292;4.136388301849365;163835;0;0
293;4.151147842407227;163835;0;5
294;4.165795803070068;163835;5;0
295;4.179814338684082;163835;0;0
296;4.194093227386475;163835;0;0
297;4.20877480506897;163835;-5;0
298;4.223482370376587;163835;0;-5
299;4.238037347793579;163835;5;0
300;4.252597093582153;163835;5;0
301;4.267111778259277;163835;0;0
302;4.281594514846802;163835;0;5
303;4.29636549949646;163835;0;5
304;4.311002969741821;163835;0;5
305;4.326084613800049;163835;0;0
306;4.341059684753418;163835;5;0
307;4.3554723262786865;163835;5;5
308;4.370053052902222;163835;5;5
309;4.384950876235962;163835;5;0
310;4.399312496185303;163835;5;0
311;4.4138054847717285;163835;0;5
312;4.428649187088013;163835;5;5
313;4.442749738693237;163835;5;0
314;4.457669496536255;163835;0;0
315;4.472199201583862;163835;5;0
316;4.486841917037964;163835;0;5
317;4.501601934432983;163835;0;0
318;4.515749454498291;163835;5;-5
319;4.529412269592285;163835;0;0
320;4.543008804321289;163835;0;0
321;4.555932521820068;163835;0;0
322;4.569788217544556;163835;0;0
323;4.584830045700073;163835;0;0
324;4.599172830581665;163835;0;-5
325;4.613969564437866;163835;0;0
326;4.62860631942749;163835;5;0
327;4.643509149551392;163835;0;0
328;4.658182859420776;163835;-5;0
329;4.673168420791626;163835;5;5
330;4.687538385391235;163835;0;-5
331;4.7023351192474365;163835;0;5
332;4.7167816162109375;163835;0;0
333;4.7316224575042725;163835;0;0
334;4.746254205703735;163835;5;0
335;4.760984897613525;163835;0;5
336;4.775274753570557;163835;5;0
337;4.789395570755005;163835;0;0
338;4.803964376449585;163835;5;5
339;4.818969964981079;163835;5;0
340;4.833550691604614;163835;0;0
341;4.847967624664307;163835;0;0
342;4.862757205963135;163835;0;0
343;4.877473831176758;163835;5;0
344;4.892099618911743;163835;5;5
345;4.906590461730957;163835;0;0
346;4.921537399291992;163835;0;5
347;4.936163902282715;163835;0;0
348;4.950456619262695;163835;0;0
349;4.964879512786865;163835;5;0
350;4.9793572425842285;163835;0;-5
351;4.9938719272613525;163835;0;5
352;5.008483648300171;163835;5;-5
353;5.02532958984375;163835;0;5
354;5.043727397918701;163835;0;0
355;5.061190605163574;163835;0;-5
356;5.079239368438721;163835;0;0
357;5.0962560176849365;163835;0;0
358;5.114037036895752;163835;5;0
359;5.1319379806518555;163835;0;0
360;5.148591041564941;163835;5;0
361;5.166181802749634;163835;0;0
362;5.183355808258057;163835;5;5
363;5.201103448867798;163835;0;0
364;5.21894645690918;163835;5;5
365;5.23749852180481;163835;5;-5
366;5.255657434463501;163835;5;0
367;5.273418426513672;163835;5;0
368;5.290666103363037;163835;0;5
369;5.3087592124938965;163835;5;0
370;5.325361013412476;163835;5;0
371;5.3434107303619385;163835;5;0
372;5.361050844192505;163835;0;0
373;5.377737522125244;163835;0;0
374;5.39537239074707;163835;0;5
375;5.413597345352173;163835;5;0
376;5.427436113357544;163835;0;0
377;5.44200587272644;163835;5;0
378;5.456467628479004;163835;0;0
379;5.47395133972168;163835;10;5
380;5.490681171417236;163835;0;5
381;5.507751226425171;163835;5;0
382;5.524986982345581;163835;5;5
383;5.542433977127075;163835;0;0
384;5.5596089363098145;163835;0;-5
385;5.576417684555054;163835;5;0
386;5.593161582946777;163835;5;0
387;5.6102283000946045;163835;0;0
388;5.627060413360596;163835;0;0
389;5.6441521644592285;163835;0;0
390;5.661080837249756;163835;0;0
391;5.677799701690674;163835;0;0
392;5.696014642715454;163835;10;5
393;5.713639736175537;163835;0;0
394;5.7313737869262695;163835;0;5
395;5.748845338821411;163835;0;5
396;5.766111373901367;163835;0;0
397;5.783707141876221;163835;0;0
398;5.803267240524292;163835;-5;0
399;5.820112943649292;163835;0;0
400;5.838624000549316;163835;5;0
401;5.856307029724121;163835;5;0
402;5.873528003692627;163835;0;5
403;5.890394687652588;163835;5;5
404;5.907816648483276;163835;0;5
405;5.925927639007568;163835;5;0
406;5.9421563148498535;163835;0;0
407;5.9571661949157715;163835;0;0
408;5.971242904663086;163835;5;0
409;5.9873175621032715;163835;0;0
410;6.005213499069214;163835;0;0
411;6.023251533508301;163835;0;0
412;6.041681528091431;163835;0;0
413;6.05894923210144;163835;5;0
414;6.076128005981445;163835;5;0
415;6.094182968139648;163835;5;0
416;6.110783815383911;163835;0;0
417;6.128109931945801;163835;0;0
418;6.145281553268433;163835;5;0
419;6.162203550338745;163835;0;0
420;6.179769515991211;163835;5;0
421;6.196288347244263;163835;-5;5
422;6.214791297912598;163835;5;0
423;6.231827020645142;163835;5;0
424;6.249011039733887;163835;0;0
425;6.267303705215454;163835;0;5
426;6.284656763076782;163835;5;5
427;6.302133560180664;163835;0;5
428;6.320807456970215;163835;5;0
429;6.3385114669799805;163835;0;0
430;6.355995416641235;163835;0;-5
431;6.37395715713501;163835;0;5
432;6.391601324081421;163835;5;0
433;6.409372091293335;163835;0;0
434;6.426378011703491;163835;5;0
435;6.444644927978516;163835;0;0
436;6.461726903915405;163835;5;0
437;6.479143857955933;163835;5;0
438;6.496191501617432;163835;5;5
439;6.513374328613281;163835;5;5
440;6.530695199966431;163835;0;0
441;6.54889440536499;163835;5;0
442;6.5668323040008545;163835;0;5
443;6.58553409576416;163835;5;5
444;6.603037118911743;163835;5;0
445;6.621454954147339;163835;0;5
446;6.640249013900757;163835;0;0
447;6.6578896045684814;163835;0;0
448;6.6752777099609375;163835;0;0
449;6.693277597427368;163835;5;0
450;6.7105712890625;163835;5;0
451;6.728660345077515;163835;5;0
452;6.746085166931152;163835;0;-5
453;6.763556241989136;163835;0;0
454;6.780961036682129;163835;0;0
455;6.798247814178467;163835;0;0
456;6.816373825073242;163835;5;-5
457;6.832640647888184;163835;0;5
458;6.846923351287842;163835;0;0
459;6.860941171646118;163835;0;0
460;6.877765893936157;163835;0;0
461;6.8947978019714355;163835;0;0
462;6.912386655807495;163835;0;0
463;6.929543495178223;163835;5;-5
464;6.946667432785034;163835;0;0
465;6.964418411254883;163835;5;0
466;6.98234224319458;163835;0;0
467;7.000982046127319;163835;0;0
468;7.018143177032471;163835;0;5
469;7.035279035568237;163835;0;0
470;7.052572727203369;163835;0;-5
471;7.070554733276367;163835;0;0
472;7.089334726333618;163835;0;0
473;7.10789680480957;163835;0;5
474;7.127031564712524;163835;5;0
475;7.145118474960327;163835;0;0
476;7.162358283996582;163835;0;0
477;7.180155277252197;163835;5;0
478;7.197358131408691;163835;0;0
479;7.215763092041016;163835;0;0
480;7.23419713973999;163835;5;0
481;7.2527360916137695;163835;5;0
482;7.270432949066162;163835;0;5
483;7.288555860519409;163835;5;5
484;7.3071067333221436;163835;0;0
485;7.32653284072876;163835;0;0
486;7.342665672302246;163835;0;5
487;7.3569111824035645;163835;0;0
488;7.370935916900635;163835;5;0
489;7.3869476318359375;163835;0;0
490;7.4051268100738525;163835;-5;0
491;7.423613548278809;163835;0;0
492;7.440354347229004;163835;0;0
493;7.457605600357056;163835;0;5
494;7.475776433944702;163835;5;0
495;7.492586135864258;163835;0;0
496;7.510739088058472;163835;0;0
497;7.527740001678467;163835;5;0
498;7.544941663742065;163835;5;0
499;7.56206750869751;163835;0;0
500;7.580123424530029;163835;0;0
501;7.597259283065796;163835;5;5
502;7.6158435344696045;163835;5;5
503;7.6341774463653564;163835;0;5
504;7.652834177017212;163835;0;0
505;7.670285224914551;163835;0;5
506;7.687859058380127;163835;0;0
507;7.7057719230651855;163835;0;0
508;7.724087953567505;163835;5;0
509;7.741300821304321;163835;0;0
510;7.759515762329102;163835;0;-5
511;7.777587652206421;163835;0;0
512;7.796537399291992;163835;0;-5
513;7.814347267150879;163835;0;5
514;7.832451343536377;163835;0;5
515;7.84941840171814;163835;5;5
516;7.866616249084473;163835;-5;5
517;7.8841118812561035;163835;5;-5
518;7.900995969772339;163835;-5;0
519;7.9190287590026855;163835;5;0
520;7.9370317459106445;163835;0;5
521;7.955062627792358;163835;0;5
522;7.97355055809021;163835;5;-5
523;7.990845203399658;163835;0;0
524;8.007942199707031;163835;5;0
525;8.025372982025146;163835;0;5
526;8.04299807548523;163835;0;0
527;8.060456991195679;163835;0;0
528;8.080222129821777;163835;5;0
529;8.098524808883667;163835;5;0
530;8.116813659667969;163835;0;0
531;8.135533571243286;163835;5;0
532;8.153777837753296;163835;5;0
533;8.171224594116211;163835;5;0
534;8.189922332763672;163835;5;5
535;8.20893931388855;163835;0;0
536;8.226889371871948;163835;0;5
537;8.24467420578003;163835;0;0
538;8.261908054351807;163835;5;5
539;8.27844500541687;163835;5;0
540;8.295801877975464;163835;5;0
541;8.313302755355835;163835;5;5
542;8.33070969581604;163835;5;5
543;8.347867488861084;163835;5;0
544;8.364869117736816;163835;0;0
545;8.38289737701416;163835;-5;5
546;8.401015043258667;163835;5;5
547;8.418107986450195;163835;5;0
548;8.435136795043945;163835;0;0
549;8.452886819839478;163835;0;0
550;8.471037864685059;163835;0;-5
551;8.488588571548462;163835;5;5
552;8.506308555603027;163835;5;0
553;8.523412227630615;163835;5;0
554;8.541395425796509;163835;0;0
555;8.559561014175415;163835;5;-5
556;8.578588247299194;163835;5;0
557;8.596206903457642;163835;0;5
558;8.614775896072388;163835;5;-5
559;8.63166093826294;163835;0;0
560;8.649654626846313;163835;0;0
561;8.666629552841187;163835;0;0
562;8.683561563491821;163835;5;0
563;8.702144384384155;163835;-5;0
564;8.719730377197266;163835;0;0
565;8.737264156341553;163835;0;0
566;8.75496506690979;163835;5;0
567;8.772384881973267;163835;0;0
568;8.789928913116455;163835;0;5
569;8.806838750839233;163835;0;0
570;8.82425045967102;163835;5;0
571;8.841400384902954;163835;5;-5
572;8.858578205108643;163835;0;5
573;8.87592601776123;163835;5;0
574;8.894345998764038;163835;0;-5
575;8.912326097488403;163835;0;5
576;8.9301118850708;163835;5;5
577;8.947707653045654;163835;0;5
578;8.967168807983398;163835;0;0
579;8.985293626785278;163835;0;-5
580;9.003585577011108;163835;0;0
581;9.02134370803833;163835;0;0
582;9.03838038444519;163835;0;5
583;9.056496143341064;163835;5;0
584;9.076322317123413;163835;5;5
585;9.095449209213257;163835;0;0
586;9.113592147827148;163835;5;0
587;9.130402088165283;163835;5;0
588;9.14716100692749;163835;5;0
589;9.164615869522095;163835;5;0
590;9.181798696517944;163835;10;5
591;9.198640584945679;163835;5;0
592;9.215733289718628;163835;5;5
593;9.233774185180664;163835;5;-5
594;9.252450227737427;163835;0;0
595;9.269416093826294;163835;5;5
596;9.289270162582397;163835;0;0
597;9.306927919387817;163835;0;0
598;9.32463788986206;163835;0;0
599;9.341612577438354;163835;0;0
