;Time;Thrust;BEM pressure;N2O pressure
0;0.0;-701;-1614;21624
1;0.008121252059936523;-701;-1614;21624
2;0.015484094619750977;-701;-1614;21624
3;0.022862672805786133;-701;-1614;21624
4;0.030179262161254883;-701;-1614;21624
5;0.03752565383911133;-701;-1614;21624
6;0.044847726821899414;-701;-1614;21624
7;0.05216026306152344;-701;-1614;21624
8;0.059478044509887695;-701;-1614;21624
9;0.06678414344787598;-701;-1614;21624
10;0.07417607307434082;-701;-1614;21624
11;0.08148550987243652;-701;-1614;21624
12;0.08881688117980957;-701;-1614;21624
13;0.09612774848937988;-701;-1614;21624
14;0.10344243049621582;-701;-1614;21624
15;0.11075639724731445;-701;-1614;21624
16;0.11808037757873535;-701;-1614;21624
17;0.12538838386535645;-701;-1614;21624
18;0.13269686698913574;-701;-1614;21624
19;0.13999605178833008;-701;-1614;21624
20;0.14732956886291504;-701;-1614;21624
21;0.15466880798339844;-701;-1614;21624
22;0.1619882583618164;-701;-1614;21624
23;0.16930150985717773;-701;-1614;21624
24;0.1766040325164795;-701;-1614;21624
25;0.18390774726867676;-701;-1614;21624
26;0.191267728805542;-701;-1614;21624
27;0.19857144355773926;-701;-1614;21624
28;0.2058877944946289;-701;-1614;21624
29;0.21319842338562012;-701;-1614;21624
30;0.22050690650939941;-701;-1614;21624
31;0.2278122901916504;-701;-1614;21624
32;0.23513197898864746;-701;-1614;21624
33;0.24244403839111328;-701;-1614;21624
34;0.24973702430725098;-701;-1614;21624
35;0.25705957412719727;-701;-1614;21624
36;0.26438021659851074;-701;-1614;21624
37;0.27172350883483887;-701;-1614;21624
38;0.27902746200561523;-701;-1614;21624
39;0.286332368850708;-701;-1614;21624
40;0.29366636276245117;-701;-1614;21624
41;0.3009767532348633;-701;-1614;21624
42;0.3083019256591797;-701;-1614;21624
43;0.31560492515563965;-701;-1614;21624
44;0.3229074478149414;-701;-1614;21624
45;0.33021116256713867;-701;-1614;21624
46;0.33751726150512695;-701;-1614;21624
47;0.34482407569885254;-701;-1614;21624
48;0.35213208198547363;-701;-1614;21624
49;0.35944414138793945;-701;-1614;21624
50;0.36676859855651855;-701;-1614;21624
51;0.3741171360015869;-701;-1614;21624
52;0.3814237117767334;-701;-1614;21624
53;0.38873791694641113;-701;-1614;21624
54;0.3960413932800293;-701;-1614;21624
55;0.40334343910217285;-701;-1614;21624
56;0.4107635021209717;-701;-1614;21624
57;0.4180717468261719;-701;-1614;21624
58;0.42539381980895996;-701;-1614;21624
59;0.4326944351196289;-701;-1614;21624
60;0.43999314308166504;-701;-1614;21624
61;0.44730639457702637;-701;-1614;21624
62;0.4546222686767578;-701;-1614;21624
63;0.46193909645080566;-701;-1614;21624
64;0.46928930282592773;-701;-1614;21624
65;0.4765942096710205;-701;-1614;21624
66;0.4838991165161133;-701;-1614;21624
67;0.4911961555480957;-701;-1614;21624
68;0.49849891662597656;-701;-1614;21624
69;0.5058059692382812;-701;-1614;21624
70;0.5131828784942627;-701;-1614;21624
71;0.5204911231994629;-701;-1614;21624
72;0.527794599533081;-701;-1614;21624
73;0.5350966453552246;-701;-1614;21624
74;0.5424017906188965;-701;-1614;21624
75;0.549708366394043;-701;-1614;21624
76;0.5571210384368896;-701;-1614;21624
77;0.5644350051879883;-701;-1614;21624
78;0.5717511177062988;-701;-1614;21624
79;0.5790596008300781;-701;-1614;21624
80;0.5863649845123291;-701;-1614;21624
81;0.5936706066131592;-701;-1614;21624
82;0.6009736061096191;-701;-1614;21624
83;0.6082882881164551;-701;-1614;21624
84;0.6155910491943359;-701;-1614;21624
85;0.6229028701782227;-701;-1614;21624
86;0.6302211284637451;-701;-1614;21624
87;0.6375305652618408;-701;-1614;21624
88;0.64483642578125;-701;-1614;21624
89;0.6521482467651367;-701;-1614;21624
90;0.6594665050506592;-701;-1614;21624
91;0.6667709350585938;-701;-1614;21624
92;0.6741287708282471;-701;-1614;21624
93;0.6814472675323486;-701;-1614;21624
94;0.6887483596801758;-701;-1614;21624
95;0.6960577964782715;-701;-1614;21624
96;0.7033584117889404;-701;-1614;21624
97;0.710676908493042;-701;-1614;21624
98;0.7179865837097168;-701;-1614;21624
99;0.7252938747406006;-701;-1614;21624
100;0.7330541610717773;-701;-1614;21624
101;0.7410495281219482;-701;-1614;21624
102;0.749047040939331;-701;-1614;21624
103;0.7582526206970215;-701;-1614;21624
104;0.7662642002105713;-701;-1614;21624
105;0.7743465900421143;-701;-1614;21624
106;0.7823300361633301;-701;-1614;21624
107;0.790452241897583;-701;-1614;21624
108;0.7984533309936523;-701;-1614;21624
109;0.8064587116241455;-701;-1614;21624
110;0.8144676685333252;-701;-1614;21624
111;0.8224730491638184;-701;-1614;21624
112;0.8305211067199707;-701;-1614;21624
113;0.8385438919067383;-701;-1614;21624
114;0.8465452194213867;-701;-1614;21624
115;0.8545396327972412;-701;-1614;21624
116;0.8625593185424805;-701;-1614;21624
117;0.8705651760101318;-701;-1614;21624
118;0.8785667419433594;-701;-1614;21624
119;0.886568546295166;-701;-1614;21624
120;0.8945748805999756;-701;-1614;21624
121;0.9025788307189941;-701;-1614;21624
122;0.9105985164642334;-701;-1614;21624
123;0.9186031818389893;-701;-1614;21624
124;0.9265992641448975;-701;-1614;21624
125;0.9346427917480469;-701;-1614;21624
126;0.9426558017730713;-701;-1614;21624
127;0.9506573677062988;-701;-1614;21624
128;0.9586849212646484;-701;-1614;21624
129;0.9667034149169922;-701;-1614;21624
130;0.9747958183288574;-701;-1614;21624
131;0.982863187789917;-701;-1614;21624
132;0.9908602237701416;-701;-1614;21624
133;0.9988448619842529;-701;-1614;21624
134;1.0069117546081543;-701;-1614;21624
135;1.015212059020996;-701;-1614;21624
136;1.0232326984405518;-701;-1614;21624
137;1.0312891006469727;-701;-1614;21624
138;1.0392956733703613;-701;-1614;21624
139;1.0473058223724365;-701;-1614;21624
140;1.0554423332214355;-701;-1614;21624
141;1.0634891986846924;-701;-1614;21624
142;1.0714988708496094;-701;-1614;21624
143;1.0796494483947754;-701;-1614;21624
144;1.0876741409301758;-701;-1614;21624
145;1.0956833362579346;-701;-1614;21624
146;1.1036922931671143;-701;-1614;21624
147;1.1117589473724365;-701;-1614;21624
148;1.119771957397461;-701;-1614;21624
149;1.1277868747711182;-701;-1614;21624
150;1.135838508605957;-701;-1614;21624
151;1.143855094909668;-701;-1614;21624
152;1.1518566608428955;-701;-1614;21624
153;1.1602003574371338;-701;-1614;21624
154;1.168438196182251;-701;-1614;21624
155;1.176468849182129;-701;-1614;21624
156;1.1845142841339111;-701;-1614;21624
157;1.1925079822540283;-701;-1614;21624
158;1.2005095481872559;-701;-1614;21624
159;1.208655595779419;-701;-1614;21624
160;1.2166738510131836;-701;-1614;21624
161;1.2247438430786133;-701;-1614;21624
162;1.2328002452850342;-701;-1614;21624
163;1.240844964981079;-701;-1614;21624
164;1.248816728591919;-701;-1614;21624
165;1.2568786144256592;-701;-1614;21624
166;1.2648682594299316;-701;-1614;21624
167;1.2729175090789795;-701;-1614;21624
168;1.2809197902679443;-701;-1614;21624
169;1.2889761924743652;-701;-1614;21624
170;1.2969787120819092;-701;-1614;21624
171;1.3049685955047607;-701;-1614;21624
172;1.3130004405975342;-701;-1614;21624
173;1.3210129737854004;-701;-1614;21624
174;1.3290207386016846;-701;-1614;21624
175;1.3370728492736816;-701;-1614;21624
176;1.3450689315795898;-701;-1614;21624
177;1.353071928024292;-701;-1614;21624
178;1.361158847808838;-701;-1614;21624
179;1.3691670894622803;-701;-1614;21624
180;1.3771753311157227;-701;-1614;21624
181;1.3851804733276367;-701;-1614;21624
182;1.3931818008422852;-701;-1614;21624
183;1.4011850357055664;-701;-1614;21624
184;1.4099435806274414;-701;-1614;21624
185;1.4179582595825195;-701;-1614;21624
186;1.4259521961212158;-701;-1614;21624
187;1.4339559078216553;-701;-1614;21624
188;1.442044734954834;-701;-1614;21624
189;1.4500508308410645;-701;-1614;21624
190;1.4580624103546143;-701;-1614;21624
191;1.4660887718200684;-701;-1614;21624
192;1.4740982055664062;-701;-1614;21624
193;1.4821679592132568;-701;-1614;21624
194;1.4902305603027344;-701;-1614;21624
195;1.4982388019561768;-701;-1614;21624
196;1.5062551498413086;-701;-1614;21624
197;1.5144240856170654;-701;-1614;21624
198;1.5224518775939941;-701;-1614;21624
199;1.530468463897705;-701;-1614;21624
200;1.5385239124298096;-701;-1614;21624
201;1.5465354919433594;-701;-1614;21624
202;1.5545330047607422;-701;-1614;21624
203;1.562558889389038;-701;-1614;21624
204;1.5705649852752686;-701;-1614;21624
205;1.5786075592041016;-701;-1614;21624
206;1.5866053104400635;-701;-1614;21624
207;1.5946033000946045;-701;-1614;21624
208;1.6026055812835693;-701;-1614;21624
209;1.6106376647949219;-701;-1614;21624
210;1.6186769008636475;-701;-1614;21624
211;1.6266825199127197;-701;-1614;21624
212;1.6347548961639404;-701;-1614;21624
213;1.6440374851226807;-701;-1614;21624
214;1.652116060256958;-701;-1614;21624
215;1.6601974964141846;-701;-1614;21624
216;1.6682038307189941;-701;-1614;21624
217;1.6762032508850098;-701;-1614;21624
218;1.6842057704925537;-701;-1614;21624
219;1.6922125816345215;-701;-1614;21624
220;1.7002811431884766;-701;-1614;21624
221;1.7082996368408203;-701;-1614;21624
222;1.7163193225860596;-701;-1614;21624
223;1.7243361473083496;-701;-1614;21624
224;1.7323482036590576;-701;-1614;21624
225;1.7403974533081055;-701;-1614;21624
226;1.748378038406372;-701;-1614;21624
227;1.7563722133636475;-701;-1614;21624
228;1.7643985748291016;-701;-1614;21624
229;1.7724049091339111;-701;-1614;21624
230;1.780419111251831;-701;-1614;21624
231;1.7884199619293213;-701;-1614;21624
232;1.7964236736297607;-701;-1614;21624
233;1.8044342994689941;-701;-1614;21624
234;1.8124809265136719;-701;-1614;21624
235;1.8204867839813232;-701;-1614;21624
236;1.8284850120544434;-701;-1614;21624
237;1.836517572402954;-701;-1614;21624
238;1.844517707824707;-701;-1614;21624
239;1.8525235652923584;-701;-1614;21624
240;1.8605639934539795;-701;-1614;21624
241;1.8685846328735352;-701;-1614;21624
242;1.876601219177246;-701;-1614;21624
243;1.8846230506896973;-701;-1614;21624
244;1.8926284313201904;-701;-1614;21624
245;1.9006376266479492;-701;-1614;21624
246;1.9087374210357666;-701;-1614;21624
247;1.9167447090148926;-701;-1614;21624
248;1.9248230457305908;-701;-1614;21624
249;1.9328820705413818;-701;-1614;21624
250;1.9409258365631104;-701;-1614;21624
251;1.94899582862854;-701;-1614;21624
252;1.9570198059082031;-701;-1614;21624
253;1.9650750160217285;-701;-1614;21624
254;1.9731175899505615;-701;-1614;21624
255;1.9811334609985352;-701;-1614;21624
256;1.9893665313720703;-701;-1614;21624
257;1.9973533153533936;-701;-1614;21624
258;2.0053653717041016;-701;-1614;21624
259;2.0135555267333984;-701;-1614;21624
260;2.021578550338745;-701;-1614;21624
261;2.0295917987823486;-701;-1614;21624
262;2.037644624710083;-701;-1614;21624
263;2.045673131942749;-701;-1614;21624
264;2.0536959171295166;-701;-1614;21624
265;2.0618538856506348;-701;-1614;21624
266;2.069873332977295;-701;-1614;21624
267;2.0778961181640625;-701;-1614;21624
268;2.0859155654907227;-701;-1614;21624
269;2.093935012817383;-701;-1614;21624
270;2.101949691772461;-701;-1614;21624
271;2.109971761703491;-701;-1614;21624
272;2.1179871559143066;-701;-1614;21624
273;2.12599778175354;-701;-1614;21624
274;2.134002923965454;-701;-1614;21624
275;2.142047166824341;-701;-1614;21624
276;2.1501104831695557;-701;-1614;21624
277;2.158116340637207;-701;-1614;21624
278;2.166154384613037;-701;-1614;21624
279;2.174159288406372;-701;-1614;21624
280;2.182218074798584;-701;-1614;21624
281;2.19026780128479;-701;-1614;21624
282;2.198280096054077;-701;-1614;21624
283;2.2062854766845703;-701;-1614;21624
284;2.21431565284729;-701;-1614;21624
285;2.2223052978515625;-701;-1614;21624
286;2.230398416519165;-701;-1614;21624
287;2.23840594291687;-701;-1614;21624
288;2.2464218139648438;-701;-1614;21624
289;2.2544307708740234;-701;-1614;21624
290;2.262443780899048;-701;-1614;21624
291;2.270451784133911;-701;-1614;21624
292;2.2784581184387207;-701;-1614;21624
293;2.2864599227905273;-701;-1614;21624
294;2.294461488723755;-701;-1614;21624
295;2.3024704456329346;-701;-1614;21624
296;2.3104805946350098;-701;-1614;21624
297;2.3184900283813477;-701;-1614;21624
298;2.326493263244629;-701;-1614;21624
299;2.334501028060913;-701;-1614;21624
300;2.342550039291382;-701;-1614;21624
301;2.3505544662475586;-701;-1614;21624
302;2.358555793762207;-701;-1614;21624
303;2.366666555404663;-701;-1614;21624
304;2.3746883869171143;-701;-1614;21624
305;2.3826990127563477;-701;-1614;21624
306;2.3907065391540527;-701;-1614;21624
307;2.398712158203125;-701;-1614;21624
308;2.4067201614379883;-701;-1614;21624
309;2.4155733585357666;-701;-1614;21624
310;2.4235918521881104;-701;-1614;21624
311;2.4316792488098145;-701;-1614;21624
312;2.4397010803222656;-701;-1614;21624
313;2.447728395462036;-701;-1614;21624
314;2.455742597579956;-701;-1614;21624
315;2.46382474899292;-701;-1614;21624
316;2.471865653991699;-701;-1614;21624
317;2.4798905849456787;-701;-1614;21624
318;2.4879302978515625;-701;-1614;21624
319;2.4959073066711426;-701;-1614;21624
320;2.503965139389038;-701;-1614;21624
321;2.512044906616211;-701;-1614;21624
322;2.5201761722564697;-701;-1614;21624
323;2.52933931350708;-701;-1614;21624
324;2.537389039993286;-701;-1614;21624
325;2.5454459190368652;-701;-1614;21624
326;2.5534489154815674;-701;-1614;21624
327;2.561471939086914;-701;-1614;21624
328;2.5695507526397705;-701;-1614;21624
329;2.577606201171875;-701;-1614;21624
330;2.585602283477783;-701;-1614;21624
331;2.593606472015381;-701;-1614;21624
332;2.6016600131988525;-701;-1614;21624
333;2.6096625328063965;-701;-1614;21624
334;2.6176929473876953;-701;-1614;21624
335;2.625701427459717;-701;-1614;21624
336;2.633709192276001;-701;-1614;21624
337;2.6417605876922607;-701;-1614;21624
338;2.649766445159912;-701;-1614;21624
339;2.657787561416626;-701;-1614;21624
340;2.66646409034729;-701;-1614;21624
341;2.6745285987854004;-701;-1614;21624
342;2.6825456619262695;-701;-1614;21624
343;2.690572500228882;-701;-1614;21624
344;2.6985979080200195;-701;-1614;21624
345;2.70658540725708;-701;-1614;21624
346;2.714627742767334;-701;-1614;21624
347;2.722654342651367;-701;-1614;21624
348;2.73067307472229;-701;-1614;21624
349;2.7386906147003174;-701;-1614;21624
350;2.7467200756073;-701;-1614;21624
351;2.7547812461853027;-701;-1614;21624
352;2.762845993041992;-701;-1614;21624
353;2.7708585262298584;-701;-1614;21624
354;2.778873920440674;-701;-1614;21624
355;2.7869229316711426;-701;-1614;21624
356;2.7949299812316895;-701;-1614;21624
357;2.8029422760009766;-701;-1614;21624
358;2.8109543323516846;-701;-1614;21624
359;2.818985939025879;-701;-1614;21624
360;2.826991558074951;-701;-1614;21624
361;2.835005521774292;-701;-1614;21624
362;2.8430674076080322;-701;-1614;21624
363;2.8510971069335938;-701;-1614;21624
364;2.8591015338897705;-701;-1614;21624
365;2.8671178817749023;-701;-1614;21624
366;2.875155210494995;-701;-1614;21624
367;2.8831772804260254;-701;-1614;21624
368;2.891197443008423;-701;-1614;21624
369;2.899232864379883;-701;-1614;21624
370;2.9072670936584473;-701;-1614;21624
371;2.915311098098755;-701;-1614;21624
372;2.923328399658203;-701;-1614;21624
373;2.931359052658081;-701;-1614;21624
374;2.9394402503967285;-701;-1614;21624
375;2.9475393295288086;-701;-1614;21624
376;2.9555459022521973;-701;-1614;21624
377;2.963660955429077;-701;-1614;21624
378;2.9716744422912598;-701;-1614;21624
379;2.9796829223632812;-701;-1614;21624
380;2.987687110900879;-701;-1614;21624
381;2.9956510066986084;-701;-1614;21624
382;3.003664970397949;-701;-1614;21624
383;3.011847496032715;-701;-1614;21624
384;3.0199079513549805;-701;-1614;21624
385;3.027923822402954;-701;-1614;21624
386;3.035933256149292;-701;-1614;21624
387;3.0439798831939697;-701;-1614;21624
388;3.051985025405884;-701;-1614;21624
389;3.059983253479004;-701;-1614;21624
390;3.0680055618286133;-701;-1614;21624
391;3.076022148132324;-701;-1614;21624
392;3.0840296745300293;-701;-1614;21624
393;3.0921549797058105;-701;-1614;21624
394;3.1002111434936523;-701;-1614;21624
395;3.108210802078247;-701;-1614;21624
396;3.1162257194519043;-701;-1614;21624
397;3.1242294311523438;-701;-1614;21624
398;3.1322407722473145;-701;-1614;21624
399;3.1403000354766846;-701;-1614;21624
400;3.148353338241577;-701;-1614;21624
401;3.156355619430542;-701;-1614;21624
402;3.164367437362671;-701;-1614;21624
403;3.172375440597534;-701;-1614;21624
404;3.18038272857666;-701;-1614;21624
405;3.1883962154388428;-701;-1614;21624
406;3.1964008808135986;-701;-1614;21624
407;3.2044036388397217;-701;-1614;21624
408;3.2124102115631104;-701;-1614;21624
409;3.220435619354248;-701;-1614;21624
410;3.2284433841705322;-701;-1614;21624
411;3.2364516258239746;-701;-1614;21624
412;3.2444255352020264;-701;-1614;21624
413;3.2524759769439697;-701;-1614;21624
414;3.2604823112487793;-701;-1614;21624
415;3.2685301303863525;-701;-1614;21624
416;3.2765324115753174;-701;-1614;21624
417;3.2845375537872314;-701;-1614;21624
418;3.292543888092041;-701;-1614;21624
419;3.30055570602417;-701;-1614;21624
420;3.308551788330078;-701;-1614;21624
421;3.316661834716797;-701;-1614;21624
422;3.324680805206299;-701;-1614;21624
423;3.332702398300171;-701;-1614;21624
424;3.340719223022461;-701;-1614;21624
425;3.348801612854004;-701;-1614;21624
426;3.3568806648254395;-701;-1614;21624
427;3.364903688430786;-701;-1614;21624
428;3.3729231357574463;-701;-1614;21624
429;3.3809261322021484;-701;-1614;21624
430;3.3890016078948975;-701;-1614;21624
431;3.3970043659210205;-701;-1614;21624
432;3.405017614364624;-701;-1614;21624
433;3.4131476879119873;-701;-1614;21624
434;3.4223859310150146;-701;-1614;21624
435;3.430400848388672;-701;-1614;21624
436;3.4384102821350098;-701;-1614;21624
437;3.446413993835449;-701;-1614;21624
438;3.454474687576294;-701;-1614;21624
439;3.462482452392578;-701;-1614;21624
440;3.470498561859131;-701;-1614;21624
441;3.478506565093994;-701;-1614;21624
442;3.4865052700042725;-701;-1614;21624
443;3.4944796562194824;-701;-1614;21624
444;3.502476453781128;-701;-1614;21624
445;3.5104825496673584;-701;-1614;21624
446;3.518627405166626;-701;-1614;21624
447;3.5266270637512207;-701;-1614;21624
448;3.5346322059631348;-701;-1614;21624
449;3.5426340103149414;-701;-1614;21624
450;3.550694704055786;-701;-1614;21624
451;3.5586953163146973;-701;-1614;21624
452;3.566711664199829;-701;-1614;21624
453;3.574782609939575;-701;-1614;21624
454;3.5828499794006348;-701;-1614;21624
455;3.590860366821289;-701;-1614;21624
456;3.598862886428833;-701;-1614;21624
457;3.606912136077881;-701;-1614;21624
458;3.614927053451538;-701;-1614;21624
459;3.6229472160339355;-701;-1614;21624
460;3.630955934524536;-701;-1614;21624
461;3.638969898223877;-701;-1614;21624
462;3.646977663040161;-701;-1614;21624
463;3.6550261974334717;-701;-1614;21624
464;3.663036823272705;-701;-1614;21624
465;3.6710503101348877;-701;-1614;21624
466;3.679049015045166;-701;-1614;21624
467;3.6870498657226562;-701;-1614;21624
468;3.695053815841675;-701;-1614;21624
469;3.703063488006592;-701;-1614;21624
470;3.7110636234283447;-701;-1614;21624
471;3.7190897464752197;-701;-1614;21624
472;3.7271063327789307;-701;-1614;21624
473;3.735125780105591;-701;-1614;21624
474;3.743112802505493;-701;-1614;21624
475;3.7511415481567383;-701;-1614;21624
476;3.7591450214385986;-701;-1614;21624
477;3.767169713973999;-701;-1614;21624
478;3.7751686573028564;-701;-1614;21624
479;3.7831714153289795;-701;-1614;21624
480;3.791233539581299;-701;-1614;21624
481;3.7992405891418457;-701;-1614;21624
482;3.8072476387023926;-701;-1614;21624
483;3.815371036529541;-701;-1614;21624
484;3.8233795166015625;-701;-1614;21624
485;3.8313848972320557;-701;-1614;21624
486;3.839491844177246;-701;-1614;21624
487;3.8475425243377686;-701;-1614;21624
488;3.8556101322174072;-701;-1614;21624
489;3.8636281490325928;-701;-1614;21624
490;3.871654987335205;-701;-1614;21624
491;3.8796744346618652;-701;-1614;21624
492;3.887681007385254;-701;-1614;21624
493;3.895685911178589;-701;-1614;21624
494;3.9036660194396973;-701;-1614;21624
495;3.911821126937866;-701;-1614;21624
496;3.9198431968688965;-701;-1614;21624
497;3.927863836288452;-701;-1614;21624
498;3.935882568359375;-701;-1614;21624
499;3.9439048767089844;-701;-1614;21624
500;3.9519622325897217;-701;-1614;21624
501;3.959998607635498;-701;-1614;21624
502;3.968064785003662;-701;-1614;21624
503;3.976097345352173;-701;-1614;21624
504;3.9841270446777344;-701;-1614;21624
