;Time;Thrust;BEM pressure;N2O pressure
0;0.0;-0.7010000000000001;-2.4170337624340004;31.706314250444002
1;0.008121252059936523;-0.7010000000000001;-2.4170337624340004;31.706314250444002
2;0.015484094619750977;-0.7010000000000001;-2.4170337624340004;31.706314250444002
3;0.022862672805786133;-0.7010000000000001;-2.4170337624340004;31.706314250444002
4;0.030179262161254883;-0.7010000000000001;-2.4170337624340004;31.706314250444002
5;0.03752565383911133;-0.7010000000000001;-2.4170337624340004;31.706314250444002
6;0.044847726821899414;-0.7010000000000001;-2.4170337624340004;31.706314250444002
7;0.05216026306152344;-0.7010000000000001;-2.4170337624340004;31.706314250444002
8;0.059478044509887695;-0.7010000000000001;-2.4170337624340004;31.706314250444002
9;0.06678414344787598;-0.7010000000000001;-2.4170337624340004;31.706314250444002
10;0.07417607307434082;-0.7010000000000001;-2.4170337624340004;31.706314250444002
11;0.08148550987243652;-0.7010000000000001;-2.4170337624340004;31.706314250444002
12;0.08881688117980957;-0.7010000000000001;-2.4170337624340004;31.706314250444002
13;0.09612774848937988;-0.7010000000000001;-2.4170337624340004;31.706314250444002
14;0.10344243049621582;-0.7010000000000001;-2.4170337624340004;31.706314250444002
15;0.11075639724731445;-0.7010000000000001;-2.4170337624340004;31.706314250444002
16;0.11808037757873535;-0.7010000000000001;-2.4170337624340004;31.706314250444002
17;0.12538838386535645;-0.7010000000000001;-2.4170337624340004;31.706314250444002
18;0.13269686698913574;-0.7010000000000001;-2.4170337624340004;31.706314250444002
19;0.13999605178833008;-0.7010000000000001;-2.4170337624340004;31.706314250444002
20;0.14732956886291504;-0.7010000000000001;-2.4170337624340004;31.706314250444002
21;0.15466880798339844;-0.7010000000000001;-2.4170337624340004;31.706314250444002
22;0.1619882583618164;-0.7010000000000001;-2.4170337624340004;31.706314250444002
23;0.16930150985717773;-0.7010000000000001;-2.4170337624340004;31.706314250444002
24;0.1766040325164795;-0.7010000000000001;-2.4170337624340004;31.706314250444002
25;0.18390774726867676;-0.7010000000000001;-2.4170337624340004;31.706314250444002
26;0.191267728805542;-0.7010000000000001;-2.4170337624340004;31.706314250444002
27;0.19857144355773926;-0.7010000000000001;-2.4170337624340004;31.706314250444002
28;0.2058877944946289;-0.7010000000000001;-2.4170337624340004;31.706314250444002
29;0.21319842338562012;-0.7010000000000001;-2.4170337624340004;31.706314250444002
30;0.22050690650939941;-0.7010000000000001;-2.4170337624340004;31.706314250444002
31;0.2278122901916504;-0.7010000000000001;-2.4170337624340004;31.706314250444002
32;0.23513197898864746;-0.7010000000000001;-2.4170337624340004;31.706314250444002
33;0.24244403839111328;-0.7010000000000001;-2.4170337624340004;31.706314250444002
34;0.24973702430725098;-0.7010000000000001;-2.4170337624340004;31.706314250444002
35;0.25705957412719727;-0.7010000000000001;-2.4170337624340004;31.706314250444002
36;0.26438021659851074;-0.7010000000000001;-2.4170337624340004;31.706314250444002
37;0.27172350883483887;-0.7010000000000001;-2.4170337624340004;31.706314250444002
38;0.27902746200561523;-0.7010000000000001;-2.4170337624340004;31.706314250444002
39;0.286332368850708;-0.7010000000000001;-2.4170337624340004;31.706314250444002
40;0.29366636276245117;-0.7010000000000001;-2.4170337624340004;31.706314250444002
41;0.3009767532348633;-0.7010000000000001;-2.4170337624340004;31.706314250444002
42;0.3083019256591797;-0.7010000000000001;-2.4170337624340004;31.706314250444002
43;0.31560492515563965;-0.7010000000000001;-2.4170337624340004;31.706314250444002
44;0.3229074478149414;-0.7010000000000001;-2.4170337624340004;31.706314250444002
45;0.33021116256713867;-0.7010000000000001;-2.4170337624340004;31.706314250444002
46;0.33751726150512695;-0.7010000000000001;-2.4170337624340004;31.706314250444002
47;0.34482407569885254;-0.7010000000000001;-2.4170337624340004;31.706314250444002
48;0.35213208198547363;-0.7010000000000001;-2.4170337624340004;31.706314250444002
49;0.35944414138793945;-0.7010000000000001;-2.4170337624340004;31.706314250444002
50;0.36676859855651855;-0.7010000000000001;-2.4170337624340004;31.706314250444002
51;0.3741171360015869;-0.7010000000000001;-2.4170337624340004;31.706314250444002
52;0.3814237117767334;-0.7010000000000001;-2.4170337624340004;31.706314250444002
53;0.38873791694641113;-0.7010000000000001;-2.4170337624340004;31.706314250444002
54;0.3960413932800293;-0.7010000000000001;-2.4170337624340004;31.706314250444002
55;0.40334343910217285;-0.7010000000000001;-2.4170337624340004;31.706314250444002
56;0.4107635021209717;-0.7010000000000001;-2.4170337624340004;31.706314250444002
57;0.4180717468261719;-0.7010000000000001;-2.4170337624340004;31.706314250444002
58;0.42539381980895996;-0.7010000000000001;-2.4170337624340004;31.706314250444002
59;0.4326944351196289;-0.7010000000000001;-2.4170337624340004;31.706314250444002
60;0.43999314308166504;-0.7010000000000001;-2.4170337624340004;31.706314250444002
61;0.44730639457702637;-0.7010000000000001;-2.4170337624340004;31.706314250444002
62;0.4546222686767578;-0.7010000000000001;-2.4170337624340004;31.706314250444002
63;0.46193909645080566;-0.7010000000000001;-2.4170337624340004;31.706314250444002
64;0.46928930282592773;-0.7010000000000001;-2.4170337624340004;31.706314250444002
65;0.4765942096710205;-0.7010000000000001;-2.4170337624340004;31.706314250444002
66;0.4838991165161133;-0.7010000000000001;-2.4170337624340004;31.706314250444002
67;0.4911961555480957;-0.7010000000000001;-2.4170337624340004;31.706314250444002
68;0.49849891662597656;-0.7010000000000001;-2.4170337624340004;31.706314250444002
69;0.5058059692382812;-0.7010000000000001;-2.4170337624340004;31.706314250444002
70;0.5131828784942627;-0.7010000000000001;-2.4170337624340004;31.706314250444002
71;0.5204911231994629;-0.7010000000000001;-2.4170337624340004;31.706314250444002
72;0.527794599533081;-0.7010000000000001;-2.4170337624340004;31.706314250444002
73;0.5350966453552246;-0.7010000000000001;-2.4170337624340004;31.706314250444002
74;0.5424017906188965;-0.7010000000000001;-2.4170337624340004;31.706314250444002
75;0.549708366394043;-0.7010000000000001;-2.4170337624340004;31.706314250444002
76;0.5571210384368896;-0.7010000000000001;-2.4170337624340004;31.706314250444002
77;0.5644350051879883;-0.7010000000000001;-2.4170337624340004;31.706314250444002
78;0.5717511177062988;-0.7010000000000001;-2.4170337624340004;31.706314250444002
79;0.5790596008300781;-0.7010000000000001;-2.4170337624340004;31.706314250444002
80;0.5863649845123291;-0.7010000000000001;-2.4170337624340004;31.706314250444002
81;0.5936706066131592;-0.7010000000000001;-2.4170337624340004;31.706314250444002
82;0.6009736061096191;-0.7010000000000001;-2.4170337624340004;31.706314250444002
83;0.6082882881164551;-0.7010000000000001;-2.4170337624340004;31.706314250444002
84;0.6155910491943359;-0.7010000000000001;-2.4170337624340004;31.706314250444002
85;0.6229028701782227;-0.7010000000000001;-2.4170337624340004;31.706314250444002
86;0.6302211284637451;-0.7010000000000001;-2.4170337624340004;31.706314250444002
87;0.6375305652618408;-0.7010000000000001;-2.4170337624340004;31.706314250444002
88;0.64483642578125;-0.7010000000000001;-2.4170337624340004;31.706314250444002
89;0.6521482467651367;-0.7010000000000001;-2.4170337624340004;31.706314250444002
90;0.6594665050506592;-0.7010000000000001;-2.4170337624340004;31.706314250444002
91;0.6667709350585938;-0.7010000000000001;-2.4170337624340004;31.706314250444002
92;0.6741287708282471;-0.7010000000000001;-2.4170337624340004;31.706314250444002
93;0.6814472675323486;-0.7010000000000001;-2.4170337624340004;31.706314250444002
94;0.6887483596801758;-0.7010000000000001;-2.4170337624340004;31.706314250444002
95;0.6960577964782715;-0.7010000000000001;-2.4170337624340004;31.706314250444002
96;0.7033584117889404;-0.7010000000000001;-2.4170337624340004;31.706314250444002
97;0.710676908493042;-0.7010000000000001;-2.4170337624340004;31.706314250444002
98;0.7179865837097168;-0.7010000000000001;-2.4170337624340004;31.706314250444002
99;0.7252938747406006;-0.7010000000000001;-2.4170337624340004;31.706314250444002
100;0.7330541610717773;-0.7010000000000001;-2.4170337624340004;31.706314250444002
101;0.7410495281219482;-0.7010000000000001;-2.4170337624340004;31.706314250444002
102;0.749047040939331;-0.7010000000000001;-2.4170337624340004;31.706314250444002
103;0.7582526206970215;-0.7010000000000001;-2.4170337624340004;31.706314250444002
104;0.7662642002105713;-0.7010000000000001;-2.4170337624340004;31.706314250444002
105;0.7743465900421143;-0.7010000000000001;-2.4170337624340004;31.706314250444002
106;0.7823300361633301;-0.7010000000000001;-2.4170337624340004;31.706314250444002
107;0.790452241897583;-0.7010000000000001;-2.4170337624340004;31.706314250444002
108;0.7984533309936523;-0.7010000000000001;-2.4170337624340004;31.706314250444002
109;0.8064587116241455;-0.7010000000000001;-2.4170337624340004;31.706314250444002
110;0.8144676685333252;-0.7010000000000001;-2.4170337624340004;31.706314250444002
111;0.8224730491638184;-0.7010000000000001;-2.4170337624340004;31.706314250444002
112;0.8305211067199707;-0.7010000000000001;-2.4170337624340004;31.706314250444002
113;0.8385438919067383;-0.7010000000000001;-2.4170337624340004;31.706314250444002
114;0.8465452194213867;-0.7010000000000001;-2.4170337624340004;31.706314250444002
115;0.8545396327972412;-0.7010000000000001;-2.4170337624340004;31.706314250444002
116;0.8625593185424805;-0.7010000000000001;-2.4170337624340004;31.706314250444002
117;0.8705651760101318;-0.7010000000000001;-2.4170337624340004;31.706314250444002
118;0.8785667419433594;-0.7010000000000001;-2.4170337624340004;31.706314250444002
119;0.886568546295166;-0.7010000000000001;-2.4170337624340004;31.706314250444002
120;0.8945748805999756;-0.7010000000000001;-2.4170337624340004;31.706314250444002
121;0.9025788307189941;-0.7010000000000001;-2.4170337624340004;31.706314250444002
122;0.9105985164642334;-0.7010000000000001;-2.4170337624340004;31.706314250444002
123;0.9186031818389893;-0.7010000000000001;-2.4170337624340004;31.706314250444002
124;0.9265992641448975;-0.7010000000000001;-2.4170337624340004;31.706314250444002
125;0.9346427917480469;-0.7010000000000001;-2.4170337624340004;31.706314250444002
126;0.9426558017730713;-0.7010000000000001;-2.4170337624340004;31.706314250444002
127;0.9506573677062988;-0.7010000000000001;-2.4170337624340004;31.706314250444002
128;0.9586849212646484;-0.7010000000000001;-2.4170337624340004;31.706314250444002
129;0.9667034149169922;-0.7010000000000001;-2.4170337624340004;31.706314250444002
130;0.9747958183288574;-0.7010000000000001;-2.4170337624340004;31.706314250444002
131;0.982863187789917;-0.7010000000000001;-2.4170337624340004;31.706314250444002
132;0.9908602237701416;-0.7010000000000001;-2.4170337624340004;31.706314250444002
133;0.9988448619842529;-0.7010000000000001;-2.4170337624340004;31.706314250444002
134;1.0069117546081543;-0.7010000000000001;-2.4170337624340004;31.706314250444002
135;1.015212059020996;-0.7010000000000001;-2.4170337624340004;31.706314250444002
136;1.0232326984405518;-0.7010000000000001;-2.4170337624340004;31.706314250444002
137;1.0312891006469727;-0.7010000000000001;-2.4170337624340004;31.706314250444002
138;1.0392956733703613;-0.7010000000000001;-2.4170337624340004;31.706314250444002
139;1.0473058223724365;-0.7010000000000001;-2.4170337624340004;31.706314250444002
140;1.0554423332214355;-0.7010000000000001;-2.4170337624340004;31.706314250444002
141;1.0634891986846924;-0.7010000000000001;-2.4170337624340004;31.706314250444002
142;1.0714988708496094;-0.7010000000000001;-2.4170337624340004;31.706314250444002
143;1.0796494483947754;-0.7010000000000001;-2.4170337624340004;31.706314250444002
144;1.0876741409301758;-0.7010000000000001;-2.4170337624340004;31.706314250444002
145;1.0956833362579346;-0.7010000000000001;-2.4170337624340004;31.706314250444002
146;1.1036922931671143;-0.7010000000000001;-2.4170337624340004;31.706314250444002
147;1.1117589473724365;-0.7010000000000001;-2.4170337624340004;31.706314250444002
148;1.119771957397461;-0.7010000000000001;-2.4170337624340004;31.706314250444002
149;1.1277868747711182;-0.7010000000000001;-2.4170337624340004;31.706314250444002
150;1.135838508605957;-0.7010000000000001;-2.4170337624340004;31.706314250444002
151;1.143855094909668;-0.7010000000000001;-2.4170337624340004;31.706314250444002
152;1.1518566608428955;-0.7010000000000001;-2.4170337624340004;31.706314250444002
153;1.1602003574371338;-0.7010000000000001;-2.4170337624340004;31.706314250444002
154;1.168438196182251;-0.7010000000000001;-2.4170337624340004;31.706314250444002
155;1.176468849182129;-0.7010000000000001;-2.4170337624340004;31.706314250444002
156;1.1845142841339111;-0.7010000000000001;-2.4170337624340004;31.706314250444002
157;1.1925079822540283;-0.7010000000000001;-2.4170337624340004;31.706314250444002
158;1.2005095481872559;-0.7010000000000001;-2.4170337624340004;31.706314250444002
159;1.208655595779419;-0.7010000000000001;-2.4170337624340004;31.706314250444002
160;1.2166738510131836;-0.7010000000000001;-2.4170337624340004;31.706314250444002
161;1.2247438430786133;-0.7010000000000001;-2.4170337624340004;31.706314250444002
162;1.2328002452850342;-0.7010000000000001;-2.4170337624340004;31.706314250444002
163;1.240844964981079;-0.7010000000000001;-2.4170337624340004;31.706314250444002
164;1.248816728591919;-0.7010000000000001;-2.4170337624340004;31.706314250444002
165;1.2568786144256592;-0.7010000000000001;-2.4170337624340004;31.706314250444002
166;1.2648682594299316;-0.7010000000000001;-2.4170337624340004;31.706314250444002
167;1.2729175090789795;-0.7010000000000001;-2.4170337624340004;31.706314250444002
168;1.2809197902679443;-0.7010000000000001;-2.4170337624340004;31.706314250444002
169;1.2889761924743652;-0.7010000000000001;-2.4170337624340004;31.706314250444002
170;1.2969787120819092;-0.7010000000000001;-2.4170337624340004;31.706314250444002
171;1.3049685955047607;-0.7010000000000001;-2.4170337624340004;31.706314250444002
172;1.3130004405975342;-0.7010000000000001;-2.4170337624340004;31.706314250444002
173;1.3210129737854004;-0.7010000000000001;-2.4170337624340004;31.706314250444002
174;1.3290207386016846;-0.7010000000000001;-2.4170337624340004;31.706314250444002
175;1.3370728492736816;-0.7010000000000001;-2.4170337624340004;31.706314250444002
176;1.3450689315795898;-0.7010000000000001;-2.4170337624340004;31.706314250444002
177;1.353071928024292;-0.7010000000000001;-2.4170337624340004;31.706314250444002
178;1.361158847808838;-0.7010000000000001;-2.4170337624340004;31.706314250444002
179;1.3691670894622803;-0.7010000000000001;-2.4170337624340004;31.706314250444002
180;1.3771753311157227;-0.7010000000000001;-2.4170337624340004;31.706314250444002
181;1.3851804733276367;-0.7010000000000001;-2.4170337624340004;31.706314250444002
182;1.3931818008422852;-0.7010000000000001;-2.4170337624340004;31.706314250444002
183;1.4011850357055664;-0.7010000000000001;-2.4170337624340004;31.706314250444002
184;1.4099435806274414;-0.7010000000000001;-2.4170337624340004;31.706314250444002
185;1.4179582595825195;-0.7010000000000001;-2.4170337624340004;31.706314250444002
186;1.4259521961212158;-0.7010000000000001;-2.4170337624340004;31.706314250444002
187;1.4339559078216553;-0.7010000000000001;-2.4170337624340004;31.706314250444002
188;1.442044734954834;-0.7010000000000001;-2.4170337624340004;31.706314250444002
189;1.4500508308410645;-0.7010000000000001;-2.4170337624340004;31.706314250444002
190;1.4580624103546143;-0.7010000000000001;-2.4170337624340004;31.706314250444002
191;1.4660887718200684;-0.7010000000000001;-2.4170337624340004;31.706314250444002
192;1.4740982055664062;-0.7010000000000001;-2.4170337624340004;31.706314250444002
193;1.4821679592132568;-0.7010000000000001;-2.4170337624340004;31.706314250444002
194;1.4902305603027344;-0.7010000000000001;-2.4170337624340004;31.706314250444002
195;1.4982388019561768;-0.7010000000000001;-2.4170337624340004;31.706314250444002
196;1.5062551498413086;-0.7010000000000001;-2.4170337624340004;31.706314250444002
197;1.5144240856170654;-0.7010000000000001;-2.4170337624340004;31.706314250444002
198;1.5224518775939941;-0.7010000000000001;-2.4170337624340004;31.706314250444002
199;1.530468463897705;-0.7010000000000001;-2.4170337624340004;31.706314250444002
200;1.5385239124298096;-0.7010000000000001;-2.4170337624340004;31.706314250444002
201;1.5465354919433594;-0.7010000000000001;-2.4170337624340004;31.706314250444002
202;1.5545330047607422;-0.7010000000000001;-2.4170337624340004;31.706314250444002
203;1.562558889389038;-0.7010000000000001;-2.4170337624340004;31.706314250444002
204;1.5705649852752686;-0.7010000000000001;-2.4170337624340004;31.706314250444002
205;1.5786075592041016;-0.7010000000000001;-2.4170337624340004;31.706314250444002
206;1.5866053104400635;-0.7010000000000001;-2.4170337624340004;31.706314250444002
207;1.5946033000946045;-0.7010000000000001;-2.4170337624340004;31.706314250444002
208;1.6026055812835693;-0.7010000000000001;-2.4170337624340004;31.706314250444002
209;1.6106376647949219;-0.7010000000000001;-2.4170337624340004;31.706314250444002
210;1.6186769008636475;-0.7010000000000001;-2.4170337624340004;31.706314250444002
211;1.6266825199127197;-0.7010000000000001;-2.4170337624340004;31.706314250444002
212;1.6347548961639404;-0.7010000000000001;-2.4170337624340004;31.706314250444002
213;1.6440374851226807;-0.7010000000000001;-2.4170337624340004;31.706314250444002
214;1.652116060256958;-0.7010000000000001;-2.4170337624340004;31.706314250444002
215;1.6601974964141846;-0.7010000000000001;-2.4170337624340004;31.706314250444002
216;1.6682038307189941;-0.7010000000000001;-2.4170337624340004;31.706314250444002
217;1.6762032508850098;-0.7010000000000001;-2.4170337624340004;31.706314250444002
218;1.6842057704925537;-0.7010000000000001;-2.4170337624340004;31.706314250444002
219;1.6922125816345215;-0.7010000000000001;-2.4170337624340004;31.706314250444002
220;1.7002811431884766;-0.7010000000000001;-2.4170337624340004;31.706314250444002
221;1.7082996368408203;-0.7010000000000001;-2.4170337624340004;31.706314250444002
222;1.7163193225860596;-0.7010000000000001;-2.4170337624340004;31.706314250444002
223;1.7243361473083496;-0.7010000000000001;-2.4170337624340004;31.706314250444002
224;1.7323482036590576;-0.7010000000000001;-2.4170337624340004;31.706314250444002
225;1.7403974533081055;-0.7010000000000001;-2.4170337624340004;31.706314250444002
226;1.748378038406372;-0.7010000000000001;-2.4170337624340004;31.706314250444002
227;1.7563722133636475;-0.7010000000000001;-2.4170337624340004;31.706314250444002
228;1.7643985748291016;-0.7010000000000001;-2.4170337624340004;31.706314250444002
229;1.7724049091339111;-0.7010000000000001;-2.4170337624340004;31.706314250444002
230;1.780419111251831;-0.7010000000000001;-2.4170337624340004;31.706314250444002
231;1.7884199619293213;-0.7010000000000001;-2.4170337624340004;31.706314250444002
232;1.7964236736297607;-0.7010000000000001;-2.4170337624340004;31.706314250444002
233;1.8044342994689941;-0.7010000000000001;-2.4170337624340004;31.706314250444002
234;1.8124809265136719;-0.7010000000000001;-2.4170337624340004;31.706314250444002
235;1.8204867839813232;-0.7010000000000001;-2.4170337624340004;31.706314250444002
236;1.8284850120544434;-0.7010000000000001;-2.4170337624340004;31.706314250444002
237;1.836517572402954;-0.7010000000000001;-2.4170337624340004;31.706314250444002
238;1.844517707824707;-0.7010000000000001;-2.4170337624340004;31.706314250444002
239;1.8525235652923584;-0.7010000000000001;-2.4170337624340004;31.706314250444002
240;1.8605639934539795;-0.7010000000000001;-2.4170337624340004;31.706314250444002
241;1.8685846328735352;-0.7010000000000001;-2.4170337624340004;31.706314250444002
242;1.876601219177246;-0.7010000000000001;-2.4170337624340004;31.706314250444002
243;1.8846230506896973;-0.7010000000000001;-2.4170337624340004;31.706314250444002
