;Time;Thrust;BEM pressure;N2O pressure;N2OWeigth
0;0.0;-1981;-399;10365;23012
1;0.01557016372680664;-1981;-404;10379;23012
2;0.029784440994262695;-1981;-425;10377;23012
3;0.0444185733795166;-1981;-421;10365;23013
4;0.05874967575073242;-1980;-408;10366;23010
5;0.07298588752746582;-1981;-404;10366;23010
6;0.08729910850524902;-1981;-402;10365;23013
7;0.1017301082611084;-1980;-402;10365;23011
8;0.11635947227478027;-1982;-405;10366;23011
9;0.13107943534851074;-1981;-400;10365;23006
10;0.14545655250549316;-1981;-417;10365;23011
11;0.15999865531921387;-1982;-402;10365;23012
12;0.17440581321716309;-1981;-399;10365;23013
13;0.1887831687927246;-1980;-411;10366;23012
14;0.20309925079345703;-1981;-405;10364;23009
15;0.21751618385314941;-1981;-402;10364;23012
16;0.23180365562438965;-1980;-409;10364;23010
17;0.24610066413879395;-1981;-397;10364;23011
18;0.2605116367340088;-1982;-415;10365;23014
19;0.2748589515686035;-1981;-407;10348;23013
20;0.2891659736633301;-1982;-401;10377;23012
21;0.3035602569580078;-1980;-409;10365;23012
22;0.31801652908325195;-1981;-402;10387;23011
23;0.33231258392333984;-1980;-403;10388;23010
24;0.34662675857543945;-1981;-395;10343;23012
25;0.3610219955444336;-1981;-408;10365;23013
26;0.3754150867462158;-1982;-408;10350;23012
27;0.38976407051086426;-1981;-407;10363;23012
28;0.4041602611541748;-1980;-406;10365;23010
29;0.41849231719970703;-1980;-411;10383;23010
30;0.4327826499938965;-1980;-412;10376;23012
31;0.44716668128967285;-1981;-410;10342;23014
32;0.4616367816925049;-1981;-416;10366;23014
33;0.47597527503967285;-1979;-403;10366;23013
34;0.49045729637145996;-1981;-414;10390;23011
35;0.5048162937164307;-1981;-404;10365;23013
36;0.5191545486450195;-1980;-411;10365;23013
37;0.5335488319396973;-1981;-406;10364;23015
38;0.5560908317565918;-1981;-402;10365;23011
39;0.570483922958374;-1982;-415;10355;23011
40;0.5848302841186523;-1981;-416;10364;23013
41;0.5991535186767578;-1981;-406;10388;23013
42;0.613553524017334;-1981;-406;10365;23014
43;0.627997636795044;-1980;-401;10366;23014
44;0.6423659324645996;-1980;-398;10365;23010
45;0.6578810214996338;-1981;-394;10365;23014
46;0.6766633987426758;-1981;-414;10367;23014
47;0.6954824924468994;-1981;-404;10365;23015
48;0.7143266201019287;-1981;-414;10365;23010
49;0.7330095767974854;-1982;-409;10363;23013
50;0.7518720626831055;-1980;-414;10366;23009
51;0.7706260681152344;-1980;-399;10367;23011
52;0.7894864082336426;-1981;-404;10365;23011
53;0.8083324432373047;-1980;-411;10366;23013
54;0.8271856307983398;-1980;-425;10352;23010
55;0.8460049629211426;-1982;-410;10365;23010
56;0.8649940490722656;-1981;-416;10366;23013
57;0.883831262588501;-1980;-405;10366;23012
58;0.902679443359375;-1981;-411;10364;23012
59;0.921393632888794;-1981;-405;10343;23013
60;0.9533841609954834;-1980;-407;10365;23013
61;0.9682822227478027;-1981;-396;10367;23014
62;0.9824883937835693;-1980;-400;10366;23012
63;0.9969456195831299;-1981;-406;10365;23010
64;1.01125168800354;-1982;-33;10776;22949
65;1.0702292919158936;-1981;-97;10621;22976
66;1.084885597229004;-1980;-237;10507;22984
67;1.0991606712341309;-1981;-284;10505;22995
68;1.1135268211364746;-1980;-304;10460;23000
69;1.1278939247131348;-1980;-328;10433;23005
70;1.142591953277588;-1981;-329;10435;23004
71;1.1574633121490479;-1981;-342;10423;23004
72;1.1718213558197021;-1981;-339;10429;22998
73;1.1861944198608398;-1980;-334;10437;22995
74;1.2005796432495117;-1980;-320;10453;22996
75;1.2148797512054443;-1980;-307;10460;22996
76;1.2291450500488281;-1981;-308;10449;22993
77;1.2433950901031494;-1981;-310;10468;22992
78;1.2578542232513428;-1981;-311;10471;22991
79;1.2721474170684814;-1980;-280;10454;22986
80;1.286461591720581;-1981;-305;10462;22969
81;1.3007867336273193;-1981;-273;10450;22934
82;1.3153188228607178;-1981;-222;10443;22903
83;1.3296220302581787;-1980;-76;10417;22886
84;1.3439950942993164;-1981;90;10416;22872
85;1.358370304107666;-1980;374;10338;22841
86;1.372680425643921;-1980;693;10290;22788
87;1.387070655822754;-1981;1054;10230;22767
88;1.401561975479126;-1980;1474;10133;22792
89;1.4159140586853027;-1981;2082;10061;22841
90;1.4302031993865967;-1980;2666;9989;22893
91;1.4445672035217285;-1980;3720;9923;22926
92;1.458890438079834;-1979;4807;9898;22937
93;1.473184585571289;-1979;5805;9891;22959
94;1.4875948429107666;-1978;6678;9936;23003
95;1.5019168853759766;-1980;7417;9977;23039
96;1.5162811279296875;-1980;8110;10020;23045
97;1.5307331085205078;-1980;8758;10038;23022
98;1.5451264381408691;-1979;9297;10039;22985
99;1.559584617614746;-1979;9792;10037;22953
100;1.5739786624908447;-1980;10238;10015;22933
101;1.5883376598358154;-1978;10855;9932;22935
102;1.6121211051940918;-1979;11215;9907;22933
103;1.6264853477478027;-1978;11566;9925;22923
104;1.6407954692840576;-1979;11876;9886;22911
105;1.6552324295043945;-1979;12180;9884;22915
106;1.6713447570800781;-1979;12515;9863;22925
107;1.6901819705963135;-1977;12831;9840;22924
108;1.7091262340545654;-1978;13177;9841;22909
109;1.7279882431030273;-1979;13470;9814;22849
110;1.7588915824890137;-1979;13914;9794;22835
111;1.7747795581817627;-1979;14120;9772;22965
112;1.7890639305114746;-1979;14288;9770;23175
113;1.8036291599273682;-1979;14411;9736;22687
114;1.8180110454559326;-1980;14563;9751;22394
115;1.8322625160217285;-1978;14707;9727;22482
116;1.8466074466705322;-1979;14856;9705;22978
117;1.860945701599121;-1978;15007;9706;23478
118;1.8753266334533691;-1980;15131;9705;23560
119;1.8896598815917969;-1977;15284;9676;23119
120;1.9041121006011963;-1977;15427;9660;22535
121;1.918532371520996;-1979;15502;9661;22195
122;1.9328012466430664;-1978;15637;9639;22292
123;1.9472074508666992;-1979;15769;9640;22797
124;1.9615936279296875;-1978;15876;9617;23278
125;1.9759440422058105;-1977;15976;9611;23416
126;1.9903538227081299;-1979;16034;9617;23130
127;2.0047390460968018;-1978;16097;9595;22769
128;2.01904034614563;-1979;16188;9590;22620
129;2.0333492755889893;-1979;16297;9584;22773
130;2.0477046966552734;-1979;16385;9573;23016
131;2.061994791030884;-1978;16464;9572;23076
132;2.0764050483703613;-1979;16510;9549;22860
133;2.0907390117645264;-1978;16586;9543;22618
134;2.105147123336792;-1979;16620;9525;22537
135;2.1194703578948975;-1979;16644;9524;22732
136;2.1337504386901855;-1980;16736;9524;23111
137;2.156850814819336;-1979;16854;9503;23162
138;2.173332929611206;-1978;16913;9503;22960
139;2.1878199577331543;-1978;16929;9504;22786
140;2.2020833492279053;-1978;16951;9480;22711
141;2.216384172439575;-1978;16988;9481;22760
142;2.230644464492798;-1978;17027;9459;22832
143;2.244978666305542;-1978;17069;9459;22822
144;2.2592618465423584;-1980;17130;9436;22744
145;2.2736189365386963;-1979;17124;9435;22695
146;2.2879772186279297;-1978;17125;9429;22765
147;2.302248239517212;-1979;17118;9388;22895
148;2.316559314727783;-1979;17161;9411;23014
149;2.3308358192443848;-1979;17239;9390;23048
150;2.345188856124878;-1978;17285;9389;22948
151;2.359484910964966;-1978;17312;9388;22818
152;2.373871088027954;-1978;17398;9368;22739
153;2.3882322311401367;-1979;17399;9346;22728
154;2.402512311935425;-1978;17365;9333;22768
155;2.416945457458496;-1979;17328;9324;22791
156;2.4312565326690674;-1979;17368;9320;22765
157;2.445572853088379;-1979;17377;9323;22755
158;2.459895133972168;-1978;17449;9301;22821
159;2.4779350757598877;-1978;17484;9278;22933
160;2.4966373443603516;-1978;17540;9279;22980
161;2.5154507160186768;-1979;17570;9256;22897
162;2.5343167781829834;-1979;17619;9258;22778
163;2.553044080734253;-1978;17544;9257;22706
164;2.5718932151794434;-1978;17613;9256;22735
165;2.5906693935394287;-1978;17648;9257;22799
166;2.609496593475342;-1979;17602;9234;22853
167;2.6283257007598877;-1979;17597;9233;22890
168;2.6471498012542725;-1979;17619;9202;22918
169;2.66585636138916;-1978;17592;9189;22888
170;2.6847503185272217;-1977;17590;9166;22822
171;2.7035367488861084;-1978;17720;9165;22732
172;2.7223587036132812;-1978;17675;9142;22689
173;2.7417099475860596;-1979;17725;9097;22717
174;2.7604291439056396;-1979;17832;9097;22793
175;2.779604196548462;-1978;17976;9052;22863
176;2.798400640487671;-1979;18095;9048;22877
177;2.8172409534454346;-1979;18256;9006;22855
178;2.8359780311584473;-1979;18409;8976;22799
179;2.8548531532287598;-1979;18574;8962;22749
180;2.8737943172454834;-1979;18773;8926;22692
181;2.892674684524536;-1978;18863;8917;22695
182;2.9114747047424316;-1979;19042;8873;22756
183;2.930241107940674;-1979;19245;8872;22863
184;2.9588382244110107;-1978;19518;8819;22874
185;2.9770803451538086;-1978;19606;8804;22838
186;2.9914674758911133;-1978;19632;8783;22782
187;3.0057857036590576;-1978;19567;8782;22735
188;3.0201148986816406;-1978;19675;8783;22707
189;3.0345239639282227;-1978;19792;8760;22706
190;3.0488221645355225;-1978;19890;8736;22716
191;3.0631463527679443;-1978;19985;8735;22740
192;3.077578544616699;-1977;20060;8699;22763
193;3.0918917655944824;-1979;20141;8681;22790
194;3.106290817260742;-1978;20142;8691;22821
195;3.120695114135742;-1978;20190;8667;22841
196;3.1350901126861572;-1978;20252;8669;22841
197;3.1494102478027344;-1978;20216;8629;22807
198;3.163773536682129;-1978;20232;8612;22748
199;3.1781623363494873;-1978;20259;8599;22688
200;3.1924777030944824;-1978;20229;8576;22659
201;3.206934690475464;-1979;20201;8576;22683
202;3.221247911453247;-1977;20275;8563;22734
203;3.235481023788452;-1979;20264;8599;22787
204;3.2498292922973633;-1978;20210;8616;22824
205;3.2643725872039795;-1978;20186;8621;22828
206;3.278726577758789;-1979;20238;8645;22809
207;3.2930028438568115;-1977;20183;8644;22786
208;3.3073909282684326;-1978;20099;8673;22765
209;3.3217341899871826;-1979;20099;8675;22747
210;3.336019277572632;-1978;20110;8690;22711
211;3.359480619430542;-1978;20060;8671;22696
212;3.373889446258545;-1978;19970;8691;22705
213;3.3882808685302734;-1979;19937;8692;22742
214;3.4025638103485107;-1978;19967;8691;22792
215;3.4169681072235107;-1979;19896;8685;22820
216;3.431286334991455;-1978;19815;8684;22823
217;3.445624351501465;-1979;19768;8622;22808
218;3.459972620010376;-1979;19780;8668;22779
219;3.4744396209716797;-1978;19802;8650;22756
220;3.488656997680664;-1978;19738;8644;22726
221;3.5029220581054688;-1978;19713;8623;22710
222;3.5172383785247803;-1979;19654;8554;22705
223;3.5315961837768555;-1979;19624;8566;22736
224;3.54817533493042;-1978;19571;8576;22774
225;3.562485694885254;-1977;19482;8485;22798
226;3.576901912689209;-1979;19447;8454;22813
227;3.591204881668091;-1978;19284;8436;22811
228;3.605532169342041;-1977;19303;8415;22790
229;3.6198570728302;-1978;19265;8394;22761
230;3.634300470352173;-1978;19284;8308;22743
231;3.6485705375671387;-1978;19288;8305;22729
232;3.6628756523132324;-1978;19282;8285;22721
233;3.678619861602783;-1978;19241;8212;22723
234;3.6974802017211914;-1978;19159;8196;22753
235;3.7169344425201416;-1979;19125;8191;22777
236;3.7355194091796875;-1979;19159;8147;22803
237;3.754542589187622;-1979;19071;8109;22800
238;3.773261785507202;-1979;19069;8063;22773
239;3.792178153991699;-1980;19018;7991;22728
240;3.810925245285034;-1979;18979;7980;22703
241;3.829740524291992;-1977;18915;7969;22717
242;3.848461627960205;-1978;18884;7946;22753
243;3.8673548698425293;-1979;18859;7903;22785
244;3.886202096939087;-1980;18856;7822;22794
245;3.9050233364105225;-1979;18759;7791;22785
246;3.9237654209136963;-1978;18737;7773;22768
247;3.9425456523895264;-1979;18721;7740;22753
248;3.961305856704712;-1978;18714;7721;22734
249;3.9801270961761475;-1979;18642;7679;22722
250;3.998903274536133;-1979;18591;7632;22735
251;4.017781496047974;-1978;18498;7577;22771
252;4.036523818969727;-1979;18512;7534;22802
253;4.055335998535156;-1979;18508;7494;22814
254;4.074159145355225;-1978;18531;7476;22791
255;4.092987298965454;-1978;18487;7430;22756
256;4.111828565597534;-1979;18428;7411;22722
257;4.1305787563323975;-1980;18382;7407;22724
258;4.160681962966919;-1979;18367;7387;22748
259;4.178473234176636;-1979;18363;7350;22769
260;4.192789316177368;-1979;18308;7325;22778
261;4.207169532775879;-1979;18295;7253;22788
262;4.221554756164551;-1979;18267;7316;22788
263;4.236114025115967;-1979;18235;7293;22776
264;4.252038955688477;-1980;18185;7253;22754
265;4.2663609981536865;-1978;18139;7278;22735
266;4.280932426452637;-1979;18096;7245;22723
267;4.295319557189941;-1978;18049;7248;22717
268;4.309634685516357;-1978;18039;7205;22723
269;4.32405686378479;-1978;18003;7227;22737
270;4.338388919830322;-1979;18013;7186;22757
271;4.3527491092681885;-1978;18009;7199;22771
272;4.367167234420776;-1978;17984;7214;22781
273;4.381561279296875;-1979;17911;7194;22781
274;4.395901441574097;-1977;17879;7249;22769
275;4.410279750823975;-1979;17835;7180;22747
276;4.424694776535034;-1980;17816;7215;22727
277;4.4390480518341064;-1978;17796;7180;22718
278;4.453423023223877;-1979;17763;7185;22716
279;4.467916250228882;-1979;17763;7212;22730
280;4.4821765422821045;-1979;17734;7113;22746
281;4.496469497680664;-1979;17682;7173;22763
282;4.510770797729492;-1979;17651;7143;22771
283;4.52517294883728;-1978;17632;7105;22768
284;4.539499998092651;-1978;17605;7149;22756
285;4.5619401931762695;-1978;17617;7079;22747
286;4.576284408569336;-1980;17575;7102;22739
287;4.590656518936157;-1978;17555;7024;22728
288;4.605081796646118;-1978;17502;7069;22716
289;4.61938214302063;-1979;17494;7053;22713
290;4.6336891651153564;-1980;17450;7034;22717
291;4.648135185241699;-1979;17387;7030;22735
292;4.662411212921143;-1979;17344;7022;22759
293;4.676812648773193;-1978;17311;6978;22774
294;4.691101789474487;-1979;17303;7011;22774
295;4.7057785987854;-1979;17278;6954;22754
296;4.720548152923584;-1979;17286;6976;22737
297;4.734846115112305;-1979;17269;6954;22724
298;4.7490622997283936;-1979;17234;6946;22720
299;4.763351678848267;-1980;17173;6910;22716
300;4.777829647064209;-1979;17121;6955;22720
301;4.7921226024627686;-1979;17097;6900;22731
302;4.806486129760742;-1979;17073;6888;22743
303;4.820821046829224;-1979;16987;6875;22757
304;4.835230112075806;-1980;16940;6887;22761
305;4.849531412124634;-1979;16941;6842;22756
306;4.863920450210571;-1979;16935;6837;22753
307;4.878301620483398;-1980;16934;6831;22740
308;4.895603656768799;-1978;16885;6819;22723
309;4.914518117904663;-1978;16821;6772;22717
310;4.936459302902222;-1978;16829;6819;22724
311;4.955454587936401;-1979;16767;6727;22746
312;4.974324703216553;-1979;16711;6747;22761
313;4.9941020011901855;-1979;16643;6740;22759
314;5.012922048568726;-1979;16627;6694;22745
315;5.031863212585449;-1979;16564;6725;22734
316;5.050581455230713;-1980;16600;6683;22716
317;5.069466590881348;-1979;16542;6661;22714
318;5.088357925415039;-1980;16491;6683;22723
319;5.1073572635650635;-1979;16456;6622;22744
320;5.126147270202637;-1980;16422;6637;22755
321;5.144959449768066;-1980;16408;6612;22755
322;5.163737535476685;-1979;16364;6611;22746
323;5.182561874389648;-1979;16303;6566;22734
324;5.201284170150757;-1979;16258;6589;22728
325;5.220092535018921;-1980;16243;6532;22724
326;5.239272356033325;-1979;16217;6520;22726
327;5.259758949279785;-1978;16200;6562;22732
328;5.278666973114014;-1978;16161;6498;22749
329;5.29759407043457;-1979;16109;6512;22755
330;5.316345453262329;-1979;16021;6487;22751
331;5.3351826667785645;-1980;15988;6484;22723
332;5.3658928871154785;-1979;15977;6454;22716
333;5.384859085083008;-1979;15926;6419;22724
334;5.399205207824707;-1979;15887;6416;22733
335;5.413543462753296;-1979;15903;6408;22743
336;5.427920579910278;-1979;15890;6454;22750
337;5.442222595214844;-1979;15847;6400;22753
338;5.456527948379517;-1979;15856;6403;22752
339;5.470853805541992;-1979;15832;6399;22746
340;5.485181093215942;-1980;15815;6339;22744
341;5.499480247497559;-1979;15808;6342;22736
342;5.513872385025024;-1979;15798;6352;22730
343;5.528264760971069;-1981;15774;6335;22725
344;5.54256272315979;-1980;15712;6338;22718
345;5.557013034820557;-1980;15641;6338;22716
346;5.571396112442017;-1981;15601;6338;22724
347;5.585727214813232;-1979;15580;6285;22739
348;5.600041389465332;-1979;15575;6296;22754
349;5.614431381225586;-1980;15570;6269;22756
350;5.628737688064575;-1979;15581;6247;22751
351;5.643048048019409;-1979;15551;6249;22740
352;5.657423973083496;-1980;15558;6239;22729
353;5.6717963218688965;-1979;15511;6243;22716
354;5.686113357543945;-1979;15463;6225;22717
355;5.700462341308594;-1980;15397;6223;22718
356;5.7154295444488525;-1978;15433;6243;22725
357;5.72972297668457;-1979;15421;6222;22732
358;5.744125843048096;-1981;15365;6225;22731
359;5.767697095870972;-1979;15347;6201;22730
360;5.7821173667907715;-1979;15317;6197;22731
361;5.7964324951171875;-1979;15263;6169;22734
362;5.810784816741943;-1979;15235;6158;22729
363;5.825164794921875;-1979;15256;6179;22726
364;5.83948278427124;-1980;15252;6157;22717
365;5.853857040405273;-1980;15234;6139;22712
366;5.868215322494507;-1979;15215;6132;22707
367;5.8825414180755615;-1979;15202;6120;22718
368;5.896955728530884;-1980;15181;6111;22734
369;5.911231756210327;-1979;15141;6091;22746
370;5.925556898117065;-1979;15163;6081;22747
371;5.939877033233643;-1980;15165;6092;22736
372;5.954296112060547;-1980;15107;6085;22725
373;5.968622446060181;-1979;15042;6045;22713
374;5.982877492904663;-1980;14995;6048;22712
375;5.997330665588379;-1980;14962;6031;22713
376;6.011713743209839;-1979;14917;6022;22717
377;6.026037931442261;-1979;14859;6002;22721
378;6.040399074554443;-1979;14842;6024;22723
379;6.0547873973846436;-1980;14863;6003;22730
380;6.069032430648804;-1980;14877;5961;22737
381;6.0836145877838135;-1979;14882;5966;22743
382;6.099608898162842;-1979;14878;5965;22733
383;6.118438959121704;-1980;14864;5976;22722
384;6.1372809410095215;-1981;14807;5959;22714
385;6.156037330627441;-1979;14757;5935;22716
386;6.17488956451416;-1979;14694;5918;22716
387;6.193728685379028;-1980;14671;5932;22717
388;6.212618112564087;-1979;14627;5935;22725
389;6.231428146362305;-1980;14584;5906;22731
390;6.250154256820679;-1980;14561;5887;22735
391;6.268977642059326;-1980;14534;5868;22723
392;6.287822961807251;-1980;14532;5844;22710
393;6.30651593208313;-1978;14538;5843;22707
394;6.325347185134888;-1979;14544;5844;22720
395;6.344172239303589;-1979;14514;5833;22730
396;6.365981817245483;-1979;14473;5835;22728
397;6.384871006011963;-1979;14451;5821;22725
398;6.403619050979614;-1980;14390;5799;22723
399;6.422419309616089;-1979;14276;5778;22721
400;6.4411725997924805;-1979;14245;5774;22715
401;6.459957599639893;-1980;14242;5752;22710
402;6.478744745254517;-1980;14244;5753;22714
403;6.500028133392334;-1979;14205;5729;22721
404;6.518914222717285;-1980;14220;5730;22729
405;6.538010358810425;-1979;14197;5725;22734
406;6.567393779754639;-1980;14204;5708;22729
407;6.586255073547363;-1980;14168;5683;22718
408;6.60240626335144;-1980;14161;5684;22708
409;6.616778135299683;-1980;14125;5662;22706
410;6.631084442138672;-1979;14105;5661;22716
411;6.64540958404541;-1980;14039;5661;22718
412;6.659762620925903;-1980;13969;5638;22724
413;6.67414402961731;-1980;13875;5615;22726
414;6.6884660720825195;-1980;13860;5649;22724
415;6.702770233154297;-1979;13857;5628;22722
416;6.71721339225769;-1980;13845;5611;22724
417;6.731553554534912;-1978;13824;5592;22722
418;6.745784521102905;-1979;13781;5573;22714
419;6.760116815567017;-1980;13763;5578;22716
420;6.7745280265808105;-1980;13721;5593;22711
421;6.788864374160767;-1979;13733;5553;22709
422;6.803149223327637;-1979;13787;5548;22716
423;6.81752347946167;-1979;13816;5548;22729
424;6.831877708435059;-1979;13803;5549;22732
425;6.846219778060913;-1979;13820;5537;22731
426;6.860588073730469;-1980;13791;5526;22724
427;6.874982118606567;-1979;13754;5548;22716
428;6.889281272888184;-1979;13695;5506;22712
429;6.9036383628845215;-1980;13642;5499;22707
430;6.918031692504883;-1980;13583;5505;22706
431;6.932327747344971;-1979;13535;5500;22707
432;6.94664192199707;-1980;13521;5503;22711
433;6.969676971435547;-1980;13496;5477;22717
434;6.984029293060303;-1980;13469;5459;22719
435;6.99832558631897;-1979;13426;5436;22722
436;7.012600660324097;-1979;13408;5460;22720
437;7.0269646644592285;-1980;13438;5456;22721
438;7.041262865066528;-1980;13430;5439;22717
439;7.055557012557983;-1980;13428;5396;22714
440;7.069835186004639;-1981;13417;5390;22710
