;Time;Thrust;BEM pressure;N2O pressure;N2OWeigth
0;0.0;-1.86559900821;-0.04832956621625237;-0.12403509329892456;2.247687170428474
1;0.013052701950073242;-0.9641541092850001;-0.04832956621625237;-0.12403509329892456;2.2650847455229037
2;0.0240020751953125;-1.3168934175600002;-0.04832956621625237;-0.12403509329892456;2.4390604964672025
3;0.034943580627441406;-0.98767006317;-0.04832956621625237;-0.12403509329892456;2.3321896780299904
4;0.046138763427734375;-1.1679590429550002;-0.04832956621625237;-0.12403509329892456;2.4340897607259366
5;0.05722928047180176;-1.11308848389;-0.04832956621625237;-0.12403509329892456;2.369470196089483
6;0.06833553314208984;-0.98767006317;-0.04832956621625237;-0.12403509329892456;2.399294610537077
7;0.07942008972167969;-1.2541842072;-0.04832956621625237;-0.12403509329892456;2.4191775535021396
8;0.09053635597229004;-0.89360624763;-0.04832956621625237;-0.12403509329892456;2.3620140924775845
9;0.10155701637268066;-1.33257072015;-0.04832956621625237;-0.12403509329892456;2.4490019679497337
10;0.11255836486816406;-0.9092835502200001;-0.04832956621625237;-0.12403509329892456;2.334675045900623
11;0.12355899810791016;-1.3168934175600002;-0.04832956621625237;-0.12403509329892456;2.453972703690999
12;0.13462519645690918;-0.9641541092850001;-0.04832956621625237;-0.12403509329892456;2.3321896780299904
13;0.14595651626586914;-1.17579769425;-0.04832956621625237;-0.12403509329892456;2.4340897607259366
14;0.1571810245513916;-1.11308848389;-0.04832956621625237;-0.12403509329892456;2.36698482821885
15;0.16825032234191895;-0.9955087144650001;-0.04832956621625237;-0.12403509329892456;2.40177997840771
16;0.1794147491455078;-1.262022858495;-0.04832956621625237;-0.12403509329892456;2.416692185631507
17;0.19051313400268555;-0.89360624763;-0.04832956621625237;-0.12403509329892456;2.3595287246069514
18;0.20154953002929688;-1.33257072015;-0.04832956621625237;-0.12403509329892456;2.4490019679497337
19;0.2125687599182129;-0.9092835502200001;-0.04832956621625237;-0.12403509329892456;2.3421311495125217
20;0.22365140914916992;-0.9327995041050001;-0.04832956621625237;-0.12403509329892456;2.446516600079101
21;0.23562240600585938;-1.0190246683500002;-0.04832956621625237;-0.12403509329892456;2.3421311495125217
22;0.2467060089111328;-1.11308848389;-0.04832956621625237;-0.12403509329892456;2.429119024984671
23;0.257615327835083;-1.1444430890700001;-0.04832956621625237;-0.12403509329892456;2.381897035442647
24;0.26886439323425293;-0.95631545799;-0.04832956621625237;-0.12403509329892456;2.3893531390545455
25;0.27985405921936035;-1.277700161085;-0.04832956621625237;-0.12403509329892456;2.426633657114038
26;0.29096555709838867;-0.89360624763;-0.04832956621625237;-0.12403509329892456;2.34958725312442
27;0.3020517826080322;-1.340409371445;-0.04832956621625237;-0.12403509329892456;2.4514873358203664
28;0.3131222724914551;-0.917122201515;-0.04832956621625237;-0.12403509329892456;2.3297043101593577
29;0.3241996765136719;-1.3012161149700001;-0.04832956621625237;-0.12403509329892456;2.4514873358203664
30;0.3351900577545166;-0.9955087144650001;-0.04832956621625237;-0.12403509329892456;2.334675045900623
31;0.3462395668029785;-1.152281740365;-0.04832956621625237;-0.12403509329892456;2.4340897607259366
32;0.3573267459869385;-1.120927135185;-0.04832956621625237;-0.12403509329892456;2.369470196089483
33;0.3683934211730957;-0.9719927605800001;-0.04832956621625237;-0.12403509329892456;2.399294610537077
34;0.37943172454833984;-1.2541842072;-0.04832956621625237;-0.12403509329892456;2.4191775535021396
35;0.3905022144317627;-0.9014448989250001;-0.04832956621625237;-0.12403509329892456;2.3595287246069514
36;0.4015085697174072;-1.324732068855;-0.04832956621625237;-0.12403509329892456;2.4514873358203664
37;0.4125480651855469;-0.9092835502200001;-0.04832956621625237;-0.12403509329892456;2.334675045900623
38;0.4235575199127197;-1.309054766265;-0.04832956621625237;-0.12403509329892456;2.453972703690999
39;0.43469691276550293;-0.9641541092850001;-0.04832956621625237;-0.12403509329892456;2.3321896780299904
40;0.44580626487731934;-1.19147499684;-0.04832956621625237;-0.12403509329892456;2.4390604964672025
41;0.45682382583618164;-1.089572530005;-0.04832956621625237;-0.12403509329892456;2.3570433567363187
42;0.4677422046661377;-1.011186017055;-0.04832956621625237;-0.12403509329892456;2.4092360820196084
43;0.47883152961730957;-1.2306682533150002;-0.04832956621625237;-0.12403509329892456;2.4042653462783425
44;0.4900197982788086;-0.9092835502200001;-0.04832956621625237;-0.12403509329892456;2.369470196089483
45;0.501009464263916;-1.324732068855;-0.04832956621625237;-0.12403509329892456;2.446516600079101
46;0.512075662612915;-0.9014448989250001;-0.04832956621625237;-0.12403509329892456;2.3371604137712563
47;0.5231671333312988;-1.33257072015;-0.04832956621625237;-0.12403509329892456;2.456458071561632
48;0.5341637134552002;-0.948476806695;-0.04832956621625237;-0.12403509329892456;2.3297043101593577
49;0.5451712608337402;-1.2306682533150002;-0.04832956621625237;-0.12403509329892456;2.444031232208468
50;0.5562195777893066;-1.058217924825;-0.04832956621625237;-0.12403509329892456;2.3471018852537875
51;0.5673627853393555;-1.06605657612;-0.04832956621625237;-0.12403509329892456;2.416692185631507
52;0.5784382820129395;-1.199313648135;-0.04832956621625237;-0.12403509329892456;2.399294610537077
53;0.5895516872406006;-0.917122201515;-0.04832956621625237;-0.12403509329892456;2.3769262997013816
54;0.6006860733032227;-1.3012161149700001;-0.04832956621625237;-0.12403509329892456;2.441545864337835
55;0.6117644309997559;-0.89360624763;-0.04832956621625237;-0.12403509329892456;2.339645781641889
56;0.6228628158569336;-1.324732068855;-0.04832956621625237;-0.12403509329892456;2.453972703690999
57;0.63393235206604;-0.9406381554000001;-0.04832956621625237;-0.12403509329892456;2.3297043101593577
58;0.6450169086456299;-1.246345555905;-0.04832956621625237;-0.12403509329892456;2.446516600079101
59;0.6560602188110352;-1.0425406222350002;-0.04832956621625237;-0.12403509329892456;2.3471018852537875
60;0.6670277118682861;-1.073895227415;-0.04832956621625237;-0.12403509329892456;2.4241482892434054
61;0.678023099899292;-1.17579769425;-0.04832956621625237;-0.12403509329892456;2.38438240331328
62;0.6890645027160645;-0.9406381554000001;-0.04832956621625237;-0.12403509329892456;2.38438240331328
63;0.7002477645874023;-1.2933774636750002;-0.04832956621625237;-0.12403509329892456;2.4340897607259366
64;0.7113323211669922;-0.885767596335;-0.04832956621625237;-0.12403509329892456;2.34958725312442
65;0.7222864627838135;-1.340409371445;-0.04832956621625237;-0.12403509329892456;2.453972703690999
66;0.7333469390869141;-0.92496085281;-0.04832956621625237;-0.12403509329892456;2.3297043101593577
67;0.7444217205047607;-1.2933774636750002;-0.04832956621625237;-0.12403509329892456;2.446516600079101
68;0.7557847499847412;-1.03470197094;-0.04832956621625237;-0.12403509329892456;2.344616517383155
69;0.7669012546539307;-1.0974111813;-0.04832956621625237;-0.12403509329892456;2.4241482892434054
70;0.7779495716094971;-1.1679590429550002;-0.04832956621625237;-0.12403509329892456;2.38438240331328
71;0.7889881134033203;-0.9406381554000001;-0.04832956621625237;-0.12403509329892456;2.386867771183913
72;0.8001883029937744;-1.28553881238;-0.04832956621625237;-0.12403509329892456;2.4340897607259366
73;0.8112127780914307;-0.885767596335;-0.04832956621625237;-0.12403509329892456;2.3520726209950533
74;0.8222591876983643;-1.33257072015;-0.04832956621625237;-0.12403509329892456;2.453972703690999
75;0.833303689956665;-0.92496085281;-0.04832956621625237;-0.12403509329892456;2.3272189422887246
76;0.8445298671722412;-1.28553881238;-0.04832956621625237;-0.12403509329892456;2.446516600079101
77;0.8557713031768799;-1.03470197094;-0.04832956621625237;-0.12403509329892456;2.3421311495125217
78;0.8668749332427979;-1.1052498325950002;-0.04832956621625237;-0.12403509329892456;2.3769262997013816
79;0.880558967590332;-1.309054766265;-0.04832956621625237;-0.12403509329892456;2.4390604964672025
80;0.8916714191436768;-0.885767596335;-0.04832956621625237;-0.12403509329892456;2.3421311495125217
81;0.9029519557952881;-1.340409371445;-0.04832956621625237;-0.12403509329892456;2.453972703690999
82;0.9139811992645264;-0.948476806695;-0.04832956621625237;-0.12403509329892456;2.3297043101593577
83;0.924994707107544;-1.23850690461;-0.04832956621625237;-0.12403509329892456;2.444031232208468
84;0.9360811710357666;-1.05037927353;-0.04832956621625237;-0.12403509329892456;2.3471018852537875
85;0.9471883773803711;-1.073895227415;-0.04832956621625237;-0.12403509329892456;2.4191775535021396
86;0.9582948684692383;-1.19147499684;-0.04832956621625237;-0.12403509329892456;2.3918385069251786
87;0.9693343639373779;-0.9327995041050001;-0.04832956621625237;-0.12403509329892456;2.38438240331328
88;0.9804315567016602;-1.3012161149700001;-0.04832956621625237;-0.12403509329892456;2.4390604964672025
89;0.9914300441741943;-0.89360624763;-0.04832956621625237;-0.12403509329892456;2.3471018852537875
90;1.0023605823516846;-1.53637565382;-0.04832956621625237;-0.12403509329892456;2.3644994603482172
91;1.0547490119934082;-0.979831411875;-0.04832956621625237;-0.12403509329892456;2.3172774708061934
92;1.0659244060516357;-1.17579769425;-0.04832956621625237;-0.12403509329892456;2.4365751285965693
93;1.0768237113952637;-1.089572530005;-0.04832956621625237;-0.12403509329892456;2.3570433567363187
94;1.0879442691802979;-1.011186017055;-0.04832956621625237;-0.12403509329892456;2.4067507141489752
95;1.098933458328247;-1.2306682533150002;-0.04832956621625237;-0.12403509329892456;2.411721449890241
96;1.1101799011230469;-0.9014448989250001;-0.04832956621625237;-0.12403509329892456;2.36698482821885
97;1.1212244033813477;-1.324732068855;-0.04832956621625237;-0.12403509329892456;2.4490019679497337
98;1.1322636604309082;-0.9014448989250001;-0.04832956621625237;-0.12403509329892456;2.3371604137712563
99;1.1433110237121582;-1.324732068855;-0.04832956621625237;-0.12403509329892456;2.456458071561632
100;1.1545383930206299;-0.9641541092850001;-0.04832956621625237;-0.12403509329892456;2.334675045900623
101;1.1656129360198975;-1.2071522994300001;-0.04832956621625237;-0.12403509329892456;2.441545864337835
102;1.1767053604125977;-1.0817338787100002;-0.04832956621625237;-0.12403509329892456;2.354557988865686
103;1.1877598762512207;-1.0190246683500002;-0.04832956621625237;-0.12403509329892456;2.411721449890241
104;1.1987543106079102;-1.214990950725;-0.04832956621625237;-0.12403509329892456;2.4042653462783425
105;1.2097675800323486;-0.9092835502200001;-0.04832956621625237;-0.12403509329892456;2.3744409318307484
106;1.2207369804382324;-1.309054766265;-0.04832956621625237;-0.12403509329892456;2.444031232208468
107;1.2318174839019775;-0.89360624763;-0.04832956621625237;-0.12403509329892456;2.339645781641889
108;1.2428600788116455;-1.277700161085;-0.04832956621625237;-0.12403509329892456;2.4490019679497337
109;1.2548799514770508;-0.9719927605800001;-0.04832956621625237;-0.12403509329892456;2.334675045900623
110;1.2659523487091064;-1.16012039166;-0.04832956621625237;-0.12403509329892456;2.4365751285965693
111;1.276857852935791;-1.0974111813;-0.04832956621625237;-0.12403509329892456;2.3620140924775845
112;1.287879228591919;-1.011186017055;-0.04832956621625237;-0.12403509329892456;2.4092360820196084
113;1.2988746166229248;-1.2306682533150002;-0.04832956621625237;-0.12403509329892456;2.4340897607259366
114;1.3161334991455078;-1.058217924825;-0.04832956621625237;-0.12403509329892456;2.3471018852537875
115;1.327549934387207;-1.05037927353;-0.04832956621625237;-0.12403509329892456;2.411721449890241
116;1.338576316833496;-1.199313648135;-0.04832956621625237;-0.12403509329892456;2.40177997840771
117;1.349820613861084;-0.9092835502200001;-0.04832956621625237;-0.12403509329892456;2.3719555639601158
118;1.3608629703521729;-1.3168934175600002;-0.04832956621625237;-0.12403509329892456;2.4490019679497337
119;1.3720743656158447;-0.9014448989250001;-0.04832956621625237;-0.12403509329892456;2.339645781641889
120;1.383218765258789;-1.324732068855;-0.04832956621625237;-0.12403509329892456;2.456458071561632
121;1.3942251205444336;-0.948476806695;-0.04832956621625237;-0.12403509329892456;2.3321896780299904
122;1.405261516571045;-1.214990950725;-0.04832956621625237;-0.12403509329892456;2.444031232208468
123;1.416269063949585;-1.06605657612;-0.04832956621625237;-0.12403509329892456;2.34958725312442
124;1.4273426532745361;-1.058217924825;-0.04832956621625237;-0.12403509329892456;2.416692185631507
125;1.438472032546997;-1.199313648135;-0.04832956621625237;-0.12403509329892456;2.399294610537077
126;1.4496302604675293;-0.917122201515;-0.04832956621625237;-0.12403509329892456;2.3744409318307484
127;1.4607484340667725;-1.309054766265;-0.04832956621625237;-0.12403509329892456;2.441545864337835
128;1.471790075302124;-0.9014448989250001;-0.04832956621625237;-0.12403509329892456;2.344616517383155
129;1.482863426208496;-1.33257072015;-0.04832956621625237;-0.12403509329892456;2.453972703690999
130;1.4939348697662354;-0.948476806695;-0.04832956621625237;-0.12403509329892456;2.3297043101593577
131;1.5049901008605957;-1.246345555905;-0.04832956621625237;-0.12403509329892456;2.446516600079101
132;1.5160486698150635;-1.0425406222350002;-0.04832956621625237;-0.12403509329892456;2.3471018852537875
133;1.5271050930023193;-1.073895227415;-0.04832956621625237;-0.12403509329892456;2.4191775535021396
134;1.5382163524627686;-1.19147499684;-0.04832956621625237;-0.12403509329892456;2.3918385069251786
135;1.5493738651275635;-0.92496085281;-0.04832956621625237;-0.12403509329892456;2.381897035442647
136;1.5604772567749023;-1.3012161149700001;-0.04832956621625237;-0.12403509329892456;2.4390604964672025
137;1.571516752243042;-0.885767596335;-0.04832956621625237;-0.12403509329892456;2.344616517383155
138;1.5825331211090088;-1.324732068855;-0.04832956621625237;-0.12403509329892456;2.441545864337835
139;1.5961053371429443;-1.05037927353;-0.04832956621625237;-0.12403509329892456;2.3471018852537875
140;1.6072418689727783;-1.06605657612;-0.04832956621625237;-0.12403509329892456;2.416692185631507
141;1.6183323860168457;-1.19147499684;-0.04832956621625237;-0.12403509329892456;2.3943238747958113
142;1.6294727325439453;-0.917122201515;-0.04832956621625237;-0.12403509329892456;2.3172774708061934
143;1.6474332809448242;-1.22282960202;-0.04832956621625237;-0.12403509329892456;2.4067507141489752
144;1.6589574813842773;-1.23850690461;-0.04832956621625237;-0.12403509329892456;2.411721449890241
145;1.670212745666504;-0.9014448989250001;-0.04832956621625237;-0.12403509329892456;2.3644994603482172
146;1.6812424659729004;-1.324732068855;-0.04832956621625237;-0.12403509329892456;2.4490019679497337
147;1.6922695636749268;-0.9014448989250001;-0.04832956621625237;-0.12403509329892456;2.3371604137712563
148;1.7032952308654785;-1.3168934175600002;-0.04832956621625237;-0.12403509329892456;2.458943439432265
149;1.7141566276550293;-0.948476806695;-0.04832956621625237;-0.12403509329892456;2.3321896780299904
150;1.7251040935516357;-1.2306682533150002;-0.04832956621625237;-0.12403509329892456;2.444031232208468
151;1.7360985279083252;-1.05037927353;-0.04832956621625237;-0.12403509329892456;2.34958725312442
152;1.7471568584442139;-1.06605657612;-0.04832956621625237;-0.12403509329892456;2.416692185631507
153;1.7582602500915527;-1.19147499684;-0.04832956621625237;-0.12403509329892456;2.3918385069251786
154;1.7693595886230469;-0.92496085281;-0.04832956621625237;-0.12403509329892456;2.3794116675720143
155;1.7804062366485596;-1.3012161149700001;-0.04832956621625237;-0.12403509329892456;2.4390604964672025
156;1.7914135456085205;-0.885767596335;-0.04832956621625237;-0.12403509329892456;2.3471018852537875
157;1.8024189472198486;-1.324732068855;-0.04832956621625237;-0.12403509329892456;2.456458071561632
158;1.8133914470672607;-0.92496085281;-0.04832956621625237;-0.12403509329892456;2.3321896780299904
159;1.824495792388916;-1.277700161085;-0.04832956621625237;-0.12403509329892456;2.4490019679497337
160;1.8355801105499268;-1.026863319645;-0.04832956621625237;-0.12403509329892456;2.339645781641889
161;1.8466157913208008;-1.1052498325950002;-0.04832956621625237;-0.12403509329892456;2.426633657114038
162;1.8576810359954834;-1.152281740365;-0.04832956621625237;-0.12403509329892456;2.3794116675720143
163;1.8687405586242676;-0.948476806695;-0.04832956621625237;-0.12403509329892456;2.3918385069251786
164;1.8797650337219238;-1.277700161085;-0.04832956621625237;-0.12403509329892456;2.426633657114038
165;1.8907923698425293;-0.885767596335;-0.04832956621625237;-0.12403509329892456;2.3570433567363187
166;1.9018828868865967;-1.340409371445;-0.04832956621625237;-0.12403509329892456;2.456458071561632
167;1.912992238998413;-0.917122201515;-0.04832956621625237;-0.12403509329892456;2.3321896780299904
168;1.9240195751190186;-1.3012161149700001;-0.04832956621625237;-0.12403509329892456;2.453972703690999
169;1.935014009475708;-0.98767006317;-0.04832956621625237;-0.12403509329892456;2.3371604137712563
170;1.9460012912750244;-1.16012039166;-0.04832956621625237;-0.12403509329892456;2.4340897607259366
171;1.9572029113769531;-1.120927135185;-0.04832956621625237;-0.12403509329892456;2.369470196089483
172;1.9681785106658936;-0.979831411875;-0.04832956621625237;-0.12403509329892456;2.4042653462783425
173;1.9791698455810547;-1.246345555905;-0.04832956621625237;-0.12403509329892456;2.4191775535021396
174;1.9903850555419922;-0.89360624763;-0.04832956621625237;-0.12403509329892456;2.3620140924775845
175;2.001420497894287;-1.324732068855;-0.04832956621625237;-0.12403509329892456;2.4514873358203664
176;2.0124080181121826;-0.9092835502200001;-0.04832956621625237;-0.12403509329892456;2.3371604137712563
177;2.0234334468841553;-1.3168934175600002;-0.04832956621625237;-0.12403509329892456;2.456458071561632
178;2.0345139503479004;-0.95631545799;-0.04832956621625237;-0.12403509329892456;2.3321896780299904
179;2.0456082820892334;-1.19147499684;-0.04832956621625237;-0.12403509329892456;2.441545864337835
180;2.0567007064819336;-1.0817338787100002;-0.04832956621625237;-0.12403509329892456;2.3595287246069514
181;2.0676920413970947;-1.011186017055;-0.04832956621625237;-0.12403509329892456;2.4092360820196084
182;2.0787293910980225;-1.22282960202;-0.04832956621625237;-0.12403509329892456;2.4042653462783425
183;2.0897557735443115;-0.9092835502200001;-0.04832956621625237;-0.12403509329892456;2.3744409318307484
184;2.1007473468780518;-1.309054766265;-0.04832956621625237;-0.12403509329892456;2.446516600079101
185;2.11181378364563;-0.89360624763;-0.04832956621625237;-0.12403509329892456;2.3421311495125217
186;2.122920274734497;-1.324732068855;-0.04832956621625237;-0.12403509329892456;2.456458071561632
187;2.134120464324951;-0.948476806695;-0.04832956621625237;-0.12403509329892456;2.3297043101593577
188;2.1451258659362793;-1.22282960202;-0.04832956621625237;-0.12403509329892456;2.444031232208468
189;2.156181573867798;-1.058217924825;-0.04832956621625237;-0.12403509329892456;2.34958725312442
190;2.1672427654266357;-1.058217924825;-0.04832956621625237;-0.12403509329892456;2.416692185631507
191;2.1783530712127686;-1.19147499684;-0.04832956621625237;-0.12403509329892456;2.399294610537077
192;2.189448595046997;-0.9092835502200001;-0.04832956621625237;-0.12403509329892456;2.381897035442647
193;2.200507879257202;-1.3012161149700001;-0.04832956621625237;-0.12403509329892456;2.441545864337835
194;2.2114906311035156;-0.89360624763;-0.04832956621625237;-0.12403509329892456;2.3471018852537875
195;2.222454071044922;-1.324732068855;-0.04832956621625237;-0.12403509329892456;2.458943439432265
196;2.2334494590759277;-0.92496085281;-0.04832956621625237;-0.12403509329892456;2.3297043101593577
197;2.2444918155670166;-1.277700161085;-0.04832956621625237;-0.12403509329892456;2.4490019679497337
198;2.255648136138916;-1.026863319645;-0.04832956621625237;-0.12403509329892456;2.3421311495125217
199;2.266643762588501;-1.0974111813;-0.04832956621625237;-0.12403509329892456;2.426633657114038
